PixelSpacing = 1.98592
ImageFile = map05.mrc
ImageSize = 4096 4096
DataMode = 1

[T = SerialEM: Digitized by Gatan Camera on T20              03-Jun-21  18:16:54    ]

[T =     Tilt axis angle = -1.7, binning = 1  spot = 7  camera = 0  bidir = 0.0]

[ZValue = 0]
TiltAngle = -59.9952
StagePosition = 544.326 -316.297
StageZ = -17.2933
Magnification = 73000
Intensity = 0.504904
ExposureDose = 0
PixelSpacing = 1.98592
SpotSize = 7
Defocus = -4.34488
ImageShift = -0.202066 -0.170753
RotationAngle = 88.2956
ExposureTime = 0.892336
Binning = 1
CameraIndex = 0
DividedBy2 = 1
MagIndex = 34
MinMaxMean = 0 132 22.0915
TargetDefocus = -5
DateTime = 03-Jun-21  18:16:45

[ZValue = 1]
TiltAngle = -56.9945
StagePosition = 544.326 -316.271
StageZ = -17.2933
Magnification = 73000
Intensity = 0.504904
ExposureDose = 0
PixelSpacing = 1.98592
SpotSize = 7
Defocus = -4.00351
ImageShift = -0.0892673 -0.122981
RotationAngle = 88.2956
ExposureTime = 0.892336
Binning = 1
CameraIndex = 0
DividedBy2 = 1
MagIndex = 34
MinMaxMean = 0 667 22.0513
TargetDefocus = -5
DateTime = 03-Jun-21  18:16:06

[ZValue = 2]
TiltAngle = -53.9884
StagePosition = 544.325 -316.25
StageZ = -17.2933
Magnification = 73000
Intensity = 0.504904
ExposureDose = 0
PixelSpacing = 1.98592
SpotSize = 7
Defocus = -4.19094
ImageShift = -0.0401313 -0.101038
RotationAngle = 88.2956
ExposureTime = 0.892336
Binning = 1
CameraIndex = 0
DividedBy2 = 1
MagIndex = 34
MinMaxMean = 0 71 21.7859
TargetDefocus = -5
DateTime = 03-Jun-21  18:15:27

[ZValue = 3]
TiltAngle = -50.9906
StagePosition = 544.323 -316.215
StageZ = -17.2933
Magnification = 73000
Intensity = 0.504904
ExposureDose = 0
PixelSpacing = 1.98592
SpotSize = 7
Defocus = -4.18377
ImageShift = 0.0625194 -0.0578375
RotationAngle = 88.2956
ExposureTime = 0.892336
Binning = 1
CameraIndex = 0
DividedBy2 = 1
MagIndex = 34
MinMaxMean = 0 158 22.1649
TargetDefocus = -5
DateTime = 03-Jun-21  18:14:58

[ZValue = 4]
TiltAngle = -47.9919
StagePosition = 544.323 -316.179
StageZ = -17.2933
Magnification = 73000
Intensity = 0.504904
ExposureDose = 0
PixelSpacing = 1.98592
SpotSize = 7
Defocus = -4.19807
ImageShift = 0.102366 -0.0385261
RotationAngle = 88.2956
ExposureTime = 0.892336
Binning = 1
CameraIndex = 0
DividedBy2 = 1
MagIndex = 34
MinMaxMean = 0 79 22.1627
TargetDefocus = -5
DateTime = 03-Jun-21  18:14:19

[ZValue = 5]
TiltAngle = -44.9926
StagePosition = 544.322 -316.141
StageZ = -17.2933
Magnification = 73000
Intensity = 0.504904
ExposureDose = 0
PixelSpacing = 1.98592
SpotSize = 7
Defocus = -4.25379
ImageShift = 0.136526 -0.0214343
RotationAngle = 88.2956
ExposureTime = 0.892336
Binning = 1
CameraIndex = 0
DividedBy2 = 1
MagIndex = 34
MinMaxMean = 0 97 22.1973
TargetDefocus = -5
DateTime = 03-Jun-21  18:13:50

[ZValue = 6]
TiltAngle = -41.9919
StagePosition = 544.32 -316.101
StageZ = -17.2933
Magnification = 73000
Intensity = 0.504904
ExposureDose = 0
PixelSpacing = 1.98592
SpotSize = 7
Defocus = -4.19039
ImageShift = 0.192282 0.00195711
RotationAngle = 88.2956
ExposureTime = 0.892336
Binning = 1
CameraIndex = 0
DividedBy2 = 1
MagIndex = 34
MinMaxMean = 0 81 22.1925
TargetDefocus = -5
DateTime = 03-Jun-21  18:13:11

[ZValue = 7]
TiltAngle = -38.9912
StagePosition = 544.322 -316.057
StageZ = -17.2933
Magnification = 73000
Intensity = 0.504904
ExposureDose = 0
PixelSpacing = 1.98592
SpotSize = 7
Defocus = -4.42432
ImageShift = 0.16074 -0.00699737
RotationAngle = 88.2956
ExposureTime = 0.892336
Binning = 1
CameraIndex = 0
DividedBy2 = 1
MagIndex = 34
MinMaxMean = 0 93 22.2095
TargetDefocus = -5
DateTime = 03-Jun-21  18:12:40

[ZValue = 8]
TiltAngle = -35.9915
StagePosition = 544.319 -316.01
StageZ = -17.2933
Magnification = 73000
Intensity = 0.504904
ExposureDose = 0
PixelSpacing = 1.98592
SpotSize = 7
Defocus = -4.30184
ImageShift = 0.126183 -0.0183467
RotationAngle = 88.2956
ExposureTime = 0.892336
Binning = 1
CameraIndex = 0
DividedBy2 = 1
MagIndex = 34
MinMaxMean = 0 955 22.1247
TargetDefocus = -5
DateTime = 03-Jun-21  18:12:20

[ZValue = 9]
TiltAngle = -32.9917
StagePosition = 544.317 -315.96
StageZ = -17.2933
Magnification = 73000
Intensity = 0.504904
ExposureDose = 0
PixelSpacing = 1.98592
SpotSize = 7
Defocus = -4.24316
ImageShift = 0.102118 -0.0283597
RotationAngle = 88.2956
ExposureTime = 0.892336
Binning = 1
CameraIndex = 0
DividedBy2 = 1
MagIndex = 34
MinMaxMean = 0 94 22.346
TargetDefocus = -5
DateTime = 03-Jun-21  18:11:41

[ZValue = 10]
TiltAngle = -29.9925
StagePosition = 544.313 -315.909
StageZ = -17.2933
Magnification = 73000
Intensity = 0.504904
ExposureDose = 0
PixelSpacing = 1.98592
SpotSize = 7
Defocus = -4.13107
ImageShift = 0.0800274 -0.0356949
RotationAngle = 88.2956
ExposureTime = 0.892336
Binning = 1
CameraIndex = 0
DividedBy2 = 1
MagIndex = 34
MinMaxMean = 0 234 22.3656
TargetDefocus = -5
DateTime = 03-Jun-21  18:11:20

[ZValue = 11]
TiltAngle = -26.9913
StagePosition = 544.314 -315.853
StageZ = -17.2933
Magnification = 73000
Intensity = 0.504904
ExposureDose = 0
PixelSpacing = 1.98592
SpotSize = 7
Defocus = -3.94358
ImageShift = 0.0572929 -0.047848
RotationAngle = 88.2956
ExposureTime = 0.892336
Binning = 1
CameraIndex = 0
DividedBy2 = 1
MagIndex = 34
MinMaxMean = 0 249 22.1096
TargetDefocus = -5
DateTime = 03-Jun-21  18:10:49

[ZValue = 12]
TiltAngle = -23.9925
StagePosition = 544.308 -315.8
StageZ = -17.2933
Magnification = 73000
Intensity = 0.504904
ExposureDose = 0
PixelSpacing = 1.98592
SpotSize = 7
Defocus = -3.87126
ImageShift = 0.0440739 -0.0597899
RotationAngle = 88.2956
ExposureTime = 0.892336
Binning = 1
CameraIndex = 0
DividedBy2 = 1
MagIndex = 34
MinMaxMean = 0 72 22.365
TargetDefocus = -5
DateTime = 03-Jun-21  18:10:28

[ZValue = 13]
TiltAngle = -20.9918
StagePosition = 544.299 -315.747
StageZ = -17.2933
Magnification = 73000
Intensity = 0.504904
ExposureDose = 0
PixelSpacing = 1.98592
SpotSize = 7
Defocus = -3.76282
ImageShift = 0.0335806 -0.0705433
RotationAngle = 88.2956
ExposureTime = 0.892336
Binning = 1
CameraIndex = 0
DividedBy2 = 1
MagIndex = 34
MinMaxMean = 0 211 22.2055
TargetDefocus = -5
DateTime = 03-Jun-21  18:09:57

[ZValue = 14]
TiltAngle = -17.9926
StagePosition = 544.295 -315.693
StageZ = -17.2933
Magnification = 73000
Intensity = 0.504904
ExposureDose = 0
PixelSpacing = 1.98592
SpotSize = 7
Defocus = -3.65422
ImageShift = 0.0283353 -0.0806466
RotationAngle = 88.2956
ExposureTime = 0.892336
Binning = 1
CameraIndex = 0
DividedBy2 = 1
MagIndex = 34
MinMaxMean = 0 330 22.1323
TargetDefocus = -5
DateTime = 03-Jun-21  18:09:36

[ZValue = 15]
TiltAngle = -14.9923
StagePosition = 544.284 -315.639
StageZ = -17.2933
Magnification = 73000
Intensity = 0.504904
ExposureDose = 0
PixelSpacing = 1.98592
SpotSize = 7
Defocus = -3.59813
ImageShift = 0.024648 -0.0953669
RotationAngle = 88.2956
ExposureTime = 0.892336
Binning = 1
CameraIndex = 0
DividedBy2 = 1
MagIndex = 34
MinMaxMean = 0 84 22.0017
TargetDefocus = -5
DateTime = 03-Jun-21  18:09:05

[ZValue = 16]
TiltAngle = -11.9931
StagePosition = 544.27 -315.592
StageZ = -17.2933
Magnification = 73000
Intensity = 0.504904
ExposureDose = 0
PixelSpacing = 1.98592
SpotSize = 7
Defocus = -3.52407
ImageShift = 0.0272155 -0.11187
RotationAngle = 88.2956
ExposureTime = 0.892336
Binning = 1
CameraIndex = 0
DividedBy2 = 1
MagIndex = 34
MinMaxMean = 0 180 22.1114
TargetDefocus = -5
DateTime = 03-Jun-21  18:08:44

[ZValue = 17]
TiltAngle = -8.99286
StagePosition = 544.254 -315.56
StageZ = -17.2933
Magnification = 73000
Intensity = 0.504904
ExposureDose = 0
PixelSpacing = 1.98592
SpotSize = 7
Defocus = -3.53679
ImageShift = 0.0299912 -0.130821
RotationAngle = 88.2956
ExposureTime = 0.892336
Binning = 1
CameraIndex = 0
DividedBy2 = 1
MagIndex = 34
MinMaxMean = 0 156 22.1599
TargetDefocus = -5
DateTime = 03-Jun-21  18:08:13

[ZValue = 18]
TiltAngle = -5.99313
StagePosition = 544.242 -315.533
StageZ = -17.2933
Magnification = 73000
Intensity = 0.504904
ExposureDose = 0
PixelSpacing = 1.98592
SpotSize = 7
Defocus = -3.28946
ImageShift = 0.0202348 -0.154284
RotationAngle = 88.2956
ExposureTime = 0.892336
Binning = 1
CameraIndex = 0
DividedBy2 = 1
MagIndex = 34
MinMaxMean = 0 633 22.1525
TargetDefocus = -5
DateTime = 03-Jun-21  18:07:52

[ZValue = 19]
TiltAngle = -2.99242
StagePosition = 544.226 -315.507
StageZ = -17.2933
Magnification = 73000
Intensity = 0.504904
ExposureDose = 0
PixelSpacing = 1.98592
SpotSize = 7
Defocus = -3.27308
ImageShift = 0.0120196 -0.173655
RotationAngle = 88.2956
ExposureTime = 0.892336
Binning = 1
CameraIndex = 0
DividedBy2 = 1
MagIndex = 34
MinMaxMean = 0 81 22.1049
TargetDefocus = -5
DateTime = 03-Jun-21  18:07:21

[ZValue = 20]
TiltAngle = 0.013664
StagePosition = 544.211 -315.478
StageZ = -17.2933
Magnification = 73000
Intensity = 0.504904
ExposureDose = 0
PixelSpacing = 1.98592
SpotSize = 7
Defocus = -2.91027
ImageShift = -0.0483225 -0.227831
RotationAngle = 88.2956
ExposureTime = 0.892336
Binning = 1
CameraIndex = 0
DividedBy2 = 1
MagIndex = 34
MinMaxMean = 0 409 21.838
TargetDefocus = -5
DateTime = 03-Jun-21  18:06:50

[ZValue = 21]
TiltAngle = 2.99583
StagePosition = 544.202 -315.496
StageZ = -17.2933
Magnification = 73000
Intensity = 0.504904
ExposureDose = 0
PixelSpacing = 1.98592
SpotSize = 7
Defocus = -1.48712
ImageShift = -0.310172 -0.396417
RotationAngle = 88.2956
ExposureTime = 0.892336
Binning = 1
CameraIndex = 0
DividedBy2 = 1
MagIndex = 34
MinMaxMean = 0 241 22.7719
TargetDefocus = -5
DateTime = 03-Jun-21  18:19:23

[ZValue = 22]
TiltAngle = 5.9985
StagePosition = 544.199 -315.453
StageZ = -17.2933
Magnification = 73000
Intensity = 0.504904
ExposureDose = 0
PixelSpacing = 1.98592
SpotSize = 7
Defocus = -1.35309
ImageShift = -0.324543 -0.396804
RotationAngle = 88.2956
ExposureTime = 0.892336
Binning = 1
CameraIndex = 0
DividedBy2 = 1
MagIndex = 34
MinMaxMean = 0 255 22.7985
TargetDefocus = -5
DateTime = 03-Jun-21  18:20:02

[ZValue = 23]
TiltAngle = 8.99823
StagePosition = 544.205 -315.407
StageZ = -17.2933
Magnification = 73000
Intensity = 0.504904
ExposureDose = 0
PixelSpacing = 1.98592
SpotSize = 7
Defocus = -1.02145
ImageShift = -0.299859 -0.366416
RotationAngle = 88.2956
ExposureTime = 0.892336
Binning = 1
CameraIndex = 0
DividedBy2 = 1
MagIndex = 34
MinMaxMean = 0 106 22.3229
TargetDefocus = -5
DateTime = 03-Jun-21  18:20:33

[ZValue = 24]
TiltAngle = 11.9985
StagePosition = 544.204 -315.361
StageZ = -17.2933
Magnification = 73000
Intensity = 0.504904
ExposureDose = 0
PixelSpacing = 1.98592
SpotSize = 7
Defocus = -0.888323
ImageShift = -0.276358 -0.341237
RotationAngle = 88.2956
ExposureTime = 0.892336
Binning = 1
CameraIndex = 0
DividedBy2 = 1
MagIndex = 34
MinMaxMean = 0 166 22.5212
TargetDefocus = -5
DateTime = 03-Jun-21  18:21:04

[ZValue = 25]
TiltAngle = 14.9977
StagePosition = 544.208 -315.317
StageZ = -17.2933
Magnification = 73000
Intensity = 0.504904
ExposureDose = 0
PixelSpacing = 1.98592
SpotSize = 7
Defocus = -0.622856
ImageShift = -0.219792 -0.297738
RotationAngle = 88.2956
ExposureTime = 0.892336
Binning = 1
CameraIndex = 0
DividedBy2 = 1
MagIndex = 34
MinMaxMean = 0 72 22.6412
TargetDefocus = -5
DateTime = 03-Jun-21  18:21:25

[ZValue = 26]
TiltAngle = 17.9974
StagePosition = 544.213 -315.27
StageZ = -17.2933
Magnification = 73000
Intensity = 0.504904
ExposureDose = 0
PixelSpacing = 1.98592
SpotSize = 7
Defocus = -0.745035
ImageShift = -0.17562 -0.262177
RotationAngle = 88.2956
ExposureTime = 0.892336
Binning = 1
CameraIndex = 0
DividedBy2 = 1
MagIndex = 34
MinMaxMean = 0 114 22.6353
TargetDefocus = -5
DateTime = 03-Jun-21  18:21:57

[ZValue = 27]
TiltAngle = 20.9967
StagePosition = 544.216 -315.222
StageZ = -17.2933
Magnification = 73000
Intensity = 0.504904
ExposureDose = 0
PixelSpacing = 1.98592
SpotSize = 7
Defocus = -0.732378
ImageShift = -0.134365 -0.231141
RotationAngle = 88.2956
ExposureTime = 0.892336
Binning = 1
CameraIndex = 0
DividedBy2 = 1
MagIndex = 34
MinMaxMean = 0 150 22.5517
TargetDefocus = -5
DateTime = 03-Jun-21  18:22:28

[ZValue = 28]
TiltAngle = 23.9959
StagePosition = 544.223 -315.17
StageZ = -17.2933
Magnification = 73000
Intensity = 0.504904
ExposureDose = 0
PixelSpacing = 1.98592
SpotSize = 7
Defocus = -0.660734
ImageShift = -0.0902415 -0.194945
RotationAngle = 88.2956
ExposureTime = 0.892336
Binning = 1
CameraIndex = 0
DividedBy2 = 1
MagIndex = 34
MinMaxMean = 0 70 22.4725
TargetDefocus = -5
DateTime = 03-Jun-21  18:22:49

[ZValue = 29]
TiltAngle = 26.9952
StagePosition = 544.226 -315.122
StageZ = -17.2933
Magnification = 73000
Intensity = 0.504904
ExposureDose = 0
PixelSpacing = 1.98592
SpotSize = 7
Defocus = -0.446234
ImageShift = -0.0188856 -0.142304
RotationAngle = 88.2956
ExposureTime = 0.892336
Binning = 1
CameraIndex = 0
DividedBy2 = 1
MagIndex = 34
MinMaxMean = 0 91 22.569
TargetDefocus = -5
DateTime = 03-Jun-21  18:23:20

[ZValue = 30]
TiltAngle = 29.9939
StagePosition = 544.231 -315.075
StageZ = -17.2933
Magnification = 73000
Intensity = 0.504904
ExposureDose = 0
PixelSpacing = 1.98592
SpotSize = 7
Defocus = -0.359054
ImageShift = 0.0176057 -0.0955654
RotationAngle = 88.2956
ExposureTime = 0.892336
Binning = 1
CameraIndex = 0
DividedBy2 = 1
MagIndex = 34
MinMaxMean = 0 265 22.281
TargetDefocus = -5
DateTime = 03-Jun-21  18:23:40

[ZValue = 31]
TiltAngle = 32.9942
StagePosition = 544.235 -315.027
StageZ = -17.2933
Magnification = 73000
Intensity = 0.504904
ExposureDose = 0
PixelSpacing = 1.98592
SpotSize = 7
Defocus = -0.294384
ImageShift = 0.0616461 -0.0490971
RotationAngle = 88.2956
ExposureTime = 0.892336
Binning = 1
CameraIndex = 0
DividedBy2 = 1
MagIndex = 34
MinMaxMean = 0 78 22.3578
TargetDefocus = -5
DateTime = 03-Jun-21  18:24:11

[ZValue = 32]
TiltAngle = 35.9934
StagePosition = 544.242 -314.979
StageZ = -17.2933
Magnification = 73000
Intensity = 0.504904
ExposureDose = 0
PixelSpacing = 1.98592
SpotSize = 7
Defocus = -0.162503
ImageShift = 0.0861961 -0.00704987
RotationAngle = 88.2956
ExposureTime = 0.892336
Binning = 1
CameraIndex = 0
DividedBy2 = 1
MagIndex = 34
MinMaxMean = 0 138 22.5671
TargetDefocus = -5
DateTime = 03-Jun-21  18:24:32

[ZValue = 33]
TiltAngle = 38.9936
StagePosition = 544.248 -314.93
StageZ = -17.2933
Magnification = 73000
Intensity = 0.504904
ExposureDose = 0
PixelSpacing = 1.98592
SpotSize = 7
Defocus = -0.124263
ImageShift = 0.116461 0.0366471
RotationAngle = 88.2956
ExposureTime = 0.892336
Binning = 1
CameraIndex = 0
DividedBy2 = 1
MagIndex = 34
MinMaxMean = 0 80 22.4728
TargetDefocus = -5
DateTime = 03-Jun-21  18:25:03

[ZValue = 34]
TiltAngle = 41.9953
StagePosition = 544.249 -314.889
StageZ = -17.2933
Magnification = 73000
Intensity = 0.504904
ExposureDose = 0
PixelSpacing = 1.98592
SpotSize = 7
Defocus = -0.0196328
ImageShift = 0.141813 0.0762163
RotationAngle = 88.2956
ExposureTime = 0.892336
Binning = 1
CameraIndex = 0
DividedBy2 = 1
MagIndex = 34
MinMaxMean = 0 82 22.3237
TargetDefocus = -5
DateTime = 03-Jun-21  18:25:34

[ZValue = 35]
TiltAngle = 44.9956
StagePosition = 544.254 -314.842
StageZ = -17.2933
Magnification = 73000
Intensity = 0.504904
ExposureDose = 0
PixelSpacing = 1.98592
SpotSize = 7
Defocus = 0.0654278
ImageShift = 0.172699 0.102957
RotationAngle = 88.2956
ExposureTime = 0.892336
Binning = 1
CameraIndex = 0
DividedBy2 = 1
MagIndex = 34
MinMaxMean = 0 367 21.8799
TargetDefocus = -5
DateTime = 03-Jun-21  18:26:03

[ZValue = 36]
TiltAngle = 47.9953
StagePosition = 544.254 -314.795
StageZ = -17.2933
Magnification = 73000
Intensity = 0.504904
ExposureDose = 0
PixelSpacing = 1.98592
SpotSize = 7
Defocus = -0.0924368
ImageShift = 0.24354 0.14421
RotationAngle = 88.2956
ExposureTime = 0.892336
Binning = 1
CameraIndex = 0
DividedBy2 = 1
MagIndex = 34
MinMaxMean = 0 96 22.2042
TargetDefocus = -5
DateTime = 03-Jun-21  18:26:35

[ZValue = 37]
TiltAngle = 50.995
StagePosition = 544.257 -314.753
StageZ = -17.2933
Magnification = 73000
Intensity = 0.504904
ExposureDose = 0
PixelSpacing = 1.98592
SpotSize = 7
Defocus = -0.121238
ImageShift = 0.267865 0.172151
RotationAngle = 88.2956
ExposureTime = 0.892336
Binning = 1
CameraIndex = 0
DividedBy2 = 1
MagIndex = 34
MinMaxMean = 0 80 22.1871
TargetDefocus = -5
DateTime = 03-Jun-21  18:27:14

[ZValue = 38]
TiltAngle = 53.9948
StagePosition = 544.26 -314.713
StageZ = -17.2933
Magnification = 73000
Intensity = 0.504904
ExposureDose = 0
PixelSpacing = 1.98592
SpotSize = 7
Defocus = -0.15764
ImageShift = 0.27803 0.191626
RotationAngle = 88.2956
ExposureTime = 0.892336
Binning = 1
CameraIndex = 0
DividedBy2 = 1
MagIndex = 34
MinMaxMean = 0 494 22.0528
TargetDefocus = -5
DateTime = 03-Jun-21  18:27:35

[ZValue = 39]
TiltAngle = 56.9955
StagePosition = 544.26 -314.675
StageZ = -17.2933
Magnification = 73000
Intensity = 0.504904
ExposureDose = 0
PixelSpacing = 1.98592
SpotSize = 7
Defocus = -0.0121665
ImageShift = 0.334405 0.23256
RotationAngle = 88.2956
ExposureTime = 0.892336
Binning = 1
CameraIndex = 0
DividedBy2 = 1
MagIndex = 34
MinMaxMean = 0 95 21.8963
TargetDefocus = -5
DateTime = 03-Jun-21  18:28:06

[ZValue = 40]
TiltAngle = 59.9947
StagePosition = 544.26 -314.64
StageZ = -17.2933
Magnification = 73000
Intensity = 0.504904
ExposureDose = 0
PixelSpacing = 1.98592
SpotSize = 7
Defocus = 0.00665331
ImageShift = 0.376169 0.267234
RotationAngle = 88.2956
ExposureTime = 0.892336
Binning = 1
CameraIndex = 0
DividedBy2 = 1
MagIndex = 34
MinMaxMean = 0 80 21.8015
TargetDefocus = -5
DateTime = 03-Jun-21  18:28:27
