PixelSpacing = 1.98592
ImageFile = map04.mrc
ImageSize = 4096 4096
DataMode = 1

[T = SerialEM: Digitized by Gatan Camera on T20              03-Jun-21  17:47:00    ]

[T =     Tilt axis angle = -1.7, binning = 1  spot = 7  camera = 0  bidir = 0.0]

[ZValue = 0]
TiltAngle = -59.9957
StagePosition = 546.775 -319.509
StageZ = -17.0836
Magnification = 73000
Intensity = 0.504904
ExposureDose = 0
PixelSpacing = 1.98592
SpotSize = 7
Defocus = -4.73602
ImageShift = -0.138643 -0.124152
RotationAngle = 88.2956
ExposureTime = 0.892336
Binning = 1
SubFramePath = E:\map03\map04_0.mrc
CameraIndex = 0
DividedBy2 = 1
MagIndex = 34
MinMaxMean = 0 79 21.7294
TargetDefocus = -5
DateTime = 03-Jun-21  17:46:51

[ZValue = 1]
TiltAngle = -56.9945
StagePosition = 546.774 -319.483
StageZ = -17.0836
Magnification = 73000
Intensity = 0.504904
ExposureDose = 0
PixelSpacing = 1.98592
SpotSize = 7
Defocus = -4.90034
ImageShift = -0.0661643 -0.0923477
RotationAngle = 88.2956
ExposureTime = 0.892336
Binning = 1
SubFramePath = E:\map03\map04_1.mrc
CameraIndex = 0
DividedBy2 = 1
MagIndex = 34
MinMaxMean = 0 90 22.194
TargetDefocus = -5
DateTime = 03-Jun-21  17:46:22

[ZValue = 2]
TiltAngle = -53.9884
StagePosition = 546.772 -319.463
StageZ = -17.0836
Magnification = 73000
Intensity = 0.504904
ExposureDose = 0
PixelSpacing = 1.98592
SpotSize = 7
Defocus = -4.68563
ImageShift = 0.00773067 -0.0587521
RotationAngle = 88.2956
ExposureTime = 0.892336
Binning = 1
SubFramePath = E:\map03\map04_2.mrc
CameraIndex = 0
DividedBy2 = 1
MagIndex = 34
MinMaxMean = 0 75 22.0277
TargetDefocus = -5
DateTime = 03-Jun-21  17:45:43

[ZValue = 3]
TiltAngle = -50.9901
StagePosition = 546.774 -319.429
StageZ = -17.0836
Magnification = 73000
Intensity = 0.504904
ExposureDose = 0
PixelSpacing = 1.98592
SpotSize = 7
Defocus = -5.06641
ImageShift = 0.0206055 -0.052644
RotationAngle = 88.2956
ExposureTime = 0.892336
Binning = 1
SubFramePath = E:\map03\map04_3.mrc
CameraIndex = 0
DividedBy2 = 1
MagIndex = 34
MinMaxMean = 0 208 22.2232
TargetDefocus = -5
DateTime = 03-Jun-21  17:45:04

[ZValue = 4]
TiltAngle = -47.9919
StagePosition = 546.774 -319.393
StageZ = -17.0836
Magnification = 73000
Intensity = 0.504904
ExposureDose = 0
PixelSpacing = 1.98592
SpotSize = 7
Defocus = -5.01427
ImageShift = 0.0560929 -0.0378288
RotationAngle = 88.2956
ExposureTime = 0.892336
Binning = 1
SubFramePath = E:\map03\map04_4.mrc
CameraIndex = 0
DividedBy2 = 1
MagIndex = 34
MinMaxMean = 0 89 22.515
TargetDefocus = -5
DateTime = 03-Jun-21  17:44:35

[ZValue = 5]
TiltAngle = -44.9926
StagePosition = 546.775 -319.354
StageZ = -17.0836
Magnification = 73000
Intensity = 0.504904
ExposureDose = 0
PixelSpacing = 1.98592
SpotSize = 7
Defocus = -5.01737
ImageShift = 0.0125418 -0.0516179
RotationAngle = 88.2956
ExposureTime = 0.892336
Binning = 1
SubFramePath = E:\map03\map04_5.mrc
CameraIndex = 0
DividedBy2 = 1
MagIndex = 34
MinMaxMean = 0 102 22.3862
TargetDefocus = -5
DateTime = 03-Jun-21  17:44:04

[ZValue = 6]
TiltAngle = -41.9919
StagePosition = 546.774 -319.313
StageZ = -17.0836
Magnification = 73000
Intensity = 0.504904
ExposureDose = 0
PixelSpacing = 1.98592
SpotSize = 7
Defocus = -4.87566
ImageShift = -0.0436757 -0.0722079
RotationAngle = 88.2956
ExposureTime = 0.892336
Binning = 1
SubFramePath = E:\map03\map04_6.mrc
CameraIndex = 0
DividedBy2 = 1
MagIndex = 34
MinMaxMean = 0 71 22.243
TargetDefocus = -5
DateTime = 03-Jun-21  17:43:43

[ZValue = 7]
TiltAngle = -38.9907
StagePosition = 546.771 -319.268
StageZ = -17.0836
Magnification = 73000
Intensity = 0.504904
ExposureDose = 0
PixelSpacing = 1.98592
SpotSize = 7
Defocus = -4.88524
ImageShift = -0.0911829 -0.0883801
RotationAngle = 88.2956
ExposureTime = 0.892336
Binning = 1
SubFramePath = E:\map03\map04_7.mrc
CameraIndex = 0
DividedBy2 = 1
MagIndex = 34
MinMaxMean = 0 208 22.4754
TargetDefocus = -5
DateTime = 03-Jun-21  17:43:04

[ZValue = 8]
TiltAngle = -35.9915
StagePosition = 546.769 -319.22
StageZ = -17.0836
Magnification = 73000
Intensity = 0.504904
ExposureDose = 0
PixelSpacing = 1.98592
SpotSize = 7
Defocus = -4.77824
ImageShift = -0.129739 -0.100544
RotationAngle = 88.2956
ExposureTime = 0.892336
Binning = 1
SubFramePath = E:\map03\map04_8.mrc
CameraIndex = 0
DividedBy2 = 1
MagIndex = 34
MinMaxMean = 0 80 22.6504
TargetDefocus = -5
DateTime = 03-Jun-21  17:42:44

[ZValue = 9]
TiltAngle = -32.9917
StagePosition = 546.774 -319.169
StageZ = -17.0836
Magnification = 73000
Intensity = 0.504904
ExposureDose = 0
PixelSpacing = 1.98592
SpotSize = 7
Defocus = -4.60808
ImageShift = -0.169208 -0.112685
RotationAngle = 88.2956
ExposureTime = 0.892336
Binning = 1
SubFramePath = E:\map03\map04_9.mrc
CameraIndex = 0
DividedBy2 = 1
MagIndex = 34
MinMaxMean = 0 137 22.5003
TargetDefocus = -5
DateTime = 03-Jun-21  17:42:12

[ZValue = 10]
TiltAngle = -29.9915
StagePosition = 546.769 -319.118
StageZ = -17.0836
Magnification = 73000
Intensity = 0.504904
ExposureDose = 0
PixelSpacing = 1.98592
SpotSize = 7
Defocus = -4.4576
ImageShift = -0.197306 -0.120561
RotationAngle = 88.2956
ExposureTime = 0.892336
Binning = 1
SubFramePath = E:\map03\map04_10.mrc
CameraIndex = 0
DividedBy2 = 1
MagIndex = 34
MinMaxMean = 0 85 22.551
TargetDefocus = -5
DateTime = 03-Jun-21  17:41:44

[ZValue = 11]
TiltAngle = -26.9913
StagePosition = 546.765 -319.062
StageZ = -17.0836
Magnification = 73000
Intensity = 0.504904
ExposureDose = 0
PixelSpacing = 1.98592
SpotSize = 7
Defocus = -4.38594
ImageShift = -0.22413 -0.1348
RotationAngle = 88.2956
ExposureTime = 0.892336
Binning = 1
SubFramePath = E:\map03\map04_11.mrc
CameraIndex = 0
DividedBy2 = 1
MagIndex = 34
MinMaxMean = 0 79 22.4765
TargetDefocus = -5
DateTime = 03-Jun-21  17:41:12

[ZValue = 12]
TiltAngle = -23.993
StagePosition = 546.759 -319.006
StageZ = -17.0836
Magnification = 73000
Intensity = 0.504904
ExposureDose = 0
PixelSpacing = 1.98592
SpotSize = 7
Defocus = -4.26492
ImageShift = -0.246381 -0.146575
RotationAngle = 88.2956
ExposureTime = 0.892336
Binning = 1
SubFramePath = E:\map03\map04_12.mrc
CameraIndex = 0
DividedBy2 = 1
MagIndex = 34
MinMaxMean = 0 91 22.5009
TargetDefocus = -5
DateTime = 03-Jun-21  17:40:52

[ZValue = 13]
TiltAngle = -20.9923
StagePosition = 546.753 -318.949
StageZ = -17.0836
Magnification = 73000
Intensity = 0.504904
ExposureDose = 0
PixelSpacing = 1.98592
SpotSize = 7
Defocus = -4.07019
ImageShift = -0.260941 -0.161563
RotationAngle = 88.2956
ExposureTime = 0.892336
Binning = 1
SubFramePath = E:\map03\map04_13.mrc
CameraIndex = 0
DividedBy2 = 1
MagIndex = 34
MinMaxMean = 0 88 22.136
TargetDefocus = -5
DateTime = 03-Jun-21  17:40:20

[ZValue = 14]
TiltAngle = -17.9926
StagePosition = 546.745 -318.892
StageZ = -17.0836
Magnification = 73000
Intensity = 0.504904
ExposureDose = 0
PixelSpacing = 1.98592
SpotSize = 7
Defocus = -3.94232
ImageShift = -0.280842 -0.176581
RotationAngle = 88.2956
ExposureTime = 0.892336
Binning = 1
SubFramePath = E:\map03\map04_14.mrc
CameraIndex = 0
DividedBy2 = 1
MagIndex = 34
MinMaxMean = 0 85 22.3183
TargetDefocus = -5
DateTime = 03-Jun-21  17:40:00

[ZValue = 15]
TiltAngle = -14.9918
StagePosition = 546.736 -318.834
StageZ = -17.0836
Magnification = 73000
Intensity = 0.504904
ExposureDose = 0
PixelSpacing = 1.98592
SpotSize = 7
Defocus = -3.8249
ImageShift = -0.264829 -0.179697
RotationAngle = 88.2956
ExposureTime = 0.892336
Binning = 1
SubFramePath = E:\map03\map04_15.mrc
CameraIndex = 0
DividedBy2 = 1
MagIndex = 34
MinMaxMean = 0 76 22.4301
TargetDefocus = -5
DateTime = 03-Jun-21  17:39:29

[ZValue = 16]
TiltAngle = -11.9931
StagePosition = 546.725 -318.784
StageZ = -17.0836
Magnification = 73000
Intensity = 0.504904
ExposureDose = 0
PixelSpacing = 1.98592
SpotSize = 7
Defocus = -3.71641
ImageShift = -0.273936 -0.200427
RotationAngle = 88.2956
ExposureTime = 0.892336
Binning = 1
SubFramePath = E:\map03\map04_16.mrc
CameraIndex = 0
DividedBy2 = 1
MagIndex = 34
MinMaxMean = 0 453 22.1983
TargetDefocus = -5
DateTime = 03-Jun-21  17:39:08

[ZValue = 17]
TiltAngle = -8.99286
StagePosition = 546.709 -318.747
StageZ = -17.0836
Magnification = 73000
Intensity = 0.504904
ExposureDose = 0
PixelSpacing = 1.98592
SpotSize = 7
Defocus = -3.71943
ImageShift = -0.285255 -0.221698
RotationAngle = 88.2956
ExposureTime = 0.892336
Binning = 1
SubFramePath = E:\map03\map04_17.mrc
CameraIndex = 0
DividedBy2 = 1
MagIndex = 34
MinMaxMean = 0 74 22.2535
TargetDefocus = -5
DateTime = 03-Jun-21  17:38:37

[ZValue = 18]
TiltAngle = -5.99313
StagePosition = 546.696 -318.719
StageZ = -17.0836
Magnification = 73000
Intensity = 0.504904
ExposureDose = 0
PixelSpacing = 1.98592
SpotSize = 7
Defocus = -3.4547
ImageShift = -0.296225 -0.242356
RotationAngle = 88.2956
ExposureTime = 0.892336
Binning = 1
SubFramePath = E:\map03\map04_18.mrc
CameraIndex = 0
DividedBy2 = 1
MagIndex = 34
MinMaxMean = 0 79 22.5791
TargetDefocus = -5
DateTime = 03-Jun-21  17:38:16

[ZValue = 19]
TiltAngle = -2.99193
StagePosition = 546.683 -318.69
StageZ = -17.0836
Magnification = 73000
Intensity = 0.504904
ExposureDose = 0
PixelSpacing = 1.98592
SpotSize = 7
Defocus = -3.37601
ImageShift = -0.300785 -0.258485
RotationAngle = 88.2956
ExposureTime = 0.892336
Binning = 1
SubFramePath = E:\map03\map04_19.mrc
CameraIndex = 0
DividedBy2 = 1
MagIndex = 34
MinMaxMean = 0 112 22.4322
TargetDefocus = -5
DateTime = 03-Jun-21  17:37:45

[ZValue = 20]
TiltAngle = 0.013176
StagePosition = 546.666 -318.659
StageZ = -17.0836
Magnification = 73000
Intensity = 0.504904
ExposureDose = 0
PixelSpacing = 1.98592
SpotSize = 7
Defocus = -3.01827
ImageShift = -0.306085 -0.285167
RotationAngle = 88.2956
ExposureTime = 0.892336
Binning = 1
SubFramePath = E:\map03\map04_20.mrc
CameraIndex = 0
DividedBy2 = 1
MagIndex = 34
MinMaxMean = 0 79 22.1468
TargetDefocus = -5
DateTime = 03-Jun-21  17:37:15

[ZValue = 21]
TiltAngle = 2.99778
StagePosition = 547.003 -317.659
StageZ = -17.0836
Magnification = 73000
Intensity = 0.504904
ExposureDose = 0
PixelSpacing = 1.98592
SpotSize = 7
Defocus = -1.91835
ImageShift = -0.00861504 0.13497
RotationAngle = 88.2956
ExposureTime = 0.892336
Binning = 1
SubFramePath = E:\map03\map04_21.mrc
CameraIndex = 0
DividedBy2 = 1
MagIndex = 34
MinMaxMean = 0 90 22.4417
TargetDefocus = -5
DateTime = 03-Jun-21  17:49:40

[ZValue = 22]
TiltAngle = 5.9985
StagePosition = 546.987 -317.633
StageZ = -17.0836
Magnification = 73000
Intensity = 0.504904
ExposureDose = 0
PixelSpacing = 1.98592
SpotSize = 7
Defocus = -1.79385
ImageShift = 0.00660648 0.124557
RotationAngle = 88.2956
ExposureTime = 0.892336
Binning = 1
SubFramePath = E:\map03\map04_22.mrc
CameraIndex = 0
DividedBy2 = 1
MagIndex = 34
MinMaxMean = 0 144 22.3455
TargetDefocus = -5
DateTime = 03-Jun-21  17:50:11

[ZValue = 23]
TiltAngle = 8.99774
StagePosition = 546.98 -317.607
StageZ = -17.0836
Magnification = 73000
Intensity = 0.504904
ExposureDose = 0
PixelSpacing = 1.98592
SpotSize = 7
Defocus = -1.6039
ImageShift = 0.0112861 0.121142
RotationAngle = 88.2956
ExposureTime = 0.892336
Binning = 1
SubFramePath = E:\map03\map04_23.mrc
CameraIndex = 0
DividedBy2 = 1
MagIndex = 34
MinMaxMean = 0 1068 22.3672
TargetDefocus = -5
DateTime = 03-Jun-21  17:50:42

[ZValue = 24]
TiltAngle = 11.998
StagePosition = 546.977 -317.576
StageZ = -17.0836
Magnification = 73000
Intensity = 0.504904
ExposureDose = 0
PixelSpacing = 1.98592
SpotSize = 7
Defocus = -1.42514
ImageShift = 0.0177512 0.119653
RotationAngle = 88.2956
ExposureTime = 0.892336
Binning = 1
SubFramePath = E:\map03\map04_24.mrc
CameraIndex = 0
DividedBy2 = 1
MagIndex = 34
MinMaxMean = 0 81 22.4099
TargetDefocus = -5
DateTime = 03-Jun-21  17:51:14

[ZValue = 25]
TiltAngle = 14.9977
StagePosition = 546.975 -317.541
StageZ = -17.0836
Magnification = 73000
Intensity = 0.504904
ExposureDose = 0
PixelSpacing = 1.98592
SpotSize = 7
Defocus = -1.23892
ImageShift = 0.0307961 0.142554
RotationAngle = 88.2956
ExposureTime = 0.892336
Binning = 1
SubFramePath = E:\map03\map04_25.mrc
CameraIndex = 0
DividedBy2 = 1
MagIndex = 34
MinMaxMean = 0 170 22.1324
TargetDefocus = -5
DateTime = 03-Jun-21  17:51:35

[ZValue = 26]
TiltAngle = 17.9974
StagePosition = 546.975 -317.505
StageZ = -17.0836
Magnification = 73000
Intensity = 0.504904
ExposureDose = 0
PixelSpacing = 1.98592
SpotSize = 7
Defocus = -1.32083
ImageShift = 0.0510643 0.156531
RotationAngle = 88.2956
ExposureTime = 0.892336
Binning = 1
SubFramePath = E:\map03\map04_26.mrc
CameraIndex = 0
DividedBy2 = 1
MagIndex = 34
MinMaxMean = 0 74 22.4089
TargetDefocus = -5
DateTime = 03-Jun-21  17:52:06

[ZValue = 27]
TiltAngle = 20.9977
StagePosition = 546.978 -317.468
StageZ = -17.0836
Magnification = 73000
Intensity = 0.504904
ExposureDose = 0
PixelSpacing = 1.98592
SpotSize = 7
Defocus = -1.23971
ImageShift = 0.0609872 0.165362
RotationAngle = 88.2956
ExposureTime = 0.892336
Binning = 1
SubFramePath = E:\map03\map04_27.mrc
CameraIndex = 0
DividedBy2 = 1
MagIndex = 34
MinMaxMean = 0 74 22.5716
TargetDefocus = -5
DateTime = 03-Jun-21  17:52:38

[ZValue = 28]
TiltAngle = 23.9954
StagePosition = 546.983 -317.424
StageZ = -17.0836
Magnification = 73000
Intensity = 0.504904
ExposureDose = 0
PixelSpacing = 1.98592
SpotSize = 7
Defocus = -1.18756
ImageShift = 0.0977207 0.203867
RotationAngle = 88.2956
ExposureTime = 0.892336
Binning = 1
SubFramePath = E:\map03\map04_28.mrc
CameraIndex = 0
DividedBy2 = 1
MagIndex = 34
MinMaxMean = 0 82 22.2701
TargetDefocus = -5
DateTime = 03-Jun-21  17:52:58

[ZValue = 29]
TiltAngle = 26.9947
StagePosition = 546.984 -317.398
StageZ = -17.0836
Magnification = 73000
Intensity = 0.504904
ExposureDose = 0
PixelSpacing = 1.98592
SpotSize = 7
Defocus = -1.10741
ImageShift = 0.11968 0.236607
RotationAngle = 88.2956
ExposureTime = 0.892336
Binning = 1
SubFramePath = E:\map03\map04_29.mrc
CameraIndex = 0
DividedBy2 = 1
MagIndex = 34
MinMaxMean = 0 89 22.2359
TargetDefocus = -5
DateTime = 03-Jun-21  17:53:29

[ZValue = 30]
TiltAngle = 29.9939
StagePosition = 546.987 -317.363
StageZ = -17.0836
Magnification = 73000
Intensity = 0.504904
ExposureDose = 0
PixelSpacing = 1.98592
SpotSize = 7
Defocus = -1.03485
ImageShift = 0.134917 0.262683
RotationAngle = 88.2956
ExposureTime = 0.892336
Binning = 1
SubFramePath = E:\map03\map04_30.mrc
CameraIndex = 0
DividedBy2 = 1
MagIndex = 34
MinMaxMean = 0 83 22.2393
TargetDefocus = -5
DateTime = 03-Jun-21  17:53:50

[ZValue = 31]
TiltAngle = 32.9932
StagePosition = 546.995 -317.319
StageZ = -17.0836
Magnification = 73000
Intensity = 0.504904
ExposureDose = 0
PixelSpacing = 1.98592
SpotSize = 7
Defocus = -0.839572
ImageShift = 0.157002 0.300732
RotationAngle = 88.2956
ExposureTime = 0.892336
Binning = 1
SubFramePath = E:\map03\map04_31.mrc
CameraIndex = 0
DividedBy2 = 1
MagIndex = 34
MinMaxMean = 0 179 22.3141
TargetDefocus = -5
DateTime = 03-Jun-21  17:54:21

[ZValue = 32]
TiltAngle = 35.9963
StagePosition = 546.995 -317.28
StageZ = -17.0836
Magnification = 73000
Intensity = 0.504904
ExposureDose = 0
PixelSpacing = 1.98592
SpotSize = 7
Defocus = -0.951015
ImageShift = 0.162082 0.329439
RotationAngle = 88.2956
ExposureTime = 0.892336
Binning = 1
SubFramePath = E:\map03\map04_32.mrc
CameraIndex = 0
DividedBy2 = 1
MagIndex = 34
MinMaxMean = 0 379 22.2622
TargetDefocus = -5
DateTime = 03-Jun-21  17:54:53

[ZValue = 33]
TiltAngle = 38.9936
StagePosition = 547 -317.223
StageZ = -17.0836
Magnification = 73000
Intensity = 0.504904
ExposureDose = 0
PixelSpacing = 1.98592
SpotSize = 7
Defocus = -0.817095
ImageShift = 0.163374 0.361073
RotationAngle = 88.2956
ExposureTime = 0.892336
Binning = 1
SubFramePath = E:\map03\map04_33.mrc
CameraIndex = 0
DividedBy2 = 1
MagIndex = 34
MinMaxMean = 0 86 22.4122
TargetDefocus = -5
DateTime = 03-Jun-21  17:55:13

[ZValue = 34]
TiltAngle = 41.9953
StagePosition = 547.001 -317.178
StageZ = -17.0836
Magnification = 73000
Intensity = 0.504904
ExposureDose = 0
PixelSpacing = 1.98592
SpotSize = 7
Defocus = -0.71859
ImageShift = 0.171799 0.388271
RotationAngle = 88.2956
ExposureTime = 0.892336
Binning = 1
SubFramePath = E:\map03\map04_34.mrc
CameraIndex = 0
DividedBy2 = 1
MagIndex = 34
MinMaxMean = 0 415 21.9506
TargetDefocus = -5
DateTime = 03-Jun-21  17:55:45

[ZValue = 35]
TiltAngle = 44.9921
StagePosition = 547.006 -317.124
StageZ = -17.0836
Magnification = 73000
Intensity = 0.504904
ExposureDose = 0
PixelSpacing = 1.98592
SpotSize = 7
Defocus = -0.699944
ImageShift = 0.189088 0.419638
RotationAngle = 88.2956
ExposureTime = 0.892336
Binning = 1
SubFramePath = E:\map03\map04_35.mrc
CameraIndex = 0
DividedBy2 = 1
MagIndex = 34
MinMaxMean = 0 76 22.108
TargetDefocus = -5
DateTime = 03-Jun-21  17:56:05

[ZValue = 36]
TiltAngle = 47.9948
StagePosition = 547.006 -317.079
StageZ = -17.0836
Magnification = 73000
Intensity = 0.504904
ExposureDose = 0
PixelSpacing = 1.98592
SpotSize = 7
Defocus = -0.866316
ImageShift = 0.202875 0.44039
RotationAngle = 88.2956
ExposureTime = 0.892336
Binning = 1
SubFramePath = E:\map03\map04_36.mrc
CameraIndex = 0
DividedBy2 = 1
MagIndex = 34
MinMaxMean = 0 80 21.9181
TargetDefocus = -5
DateTime = 03-Jun-21  17:56:37

[ZValue = 37]
TiltAngle = 50.9945
StagePosition = 547.009 -317.033
StageZ = -17.0836
Magnification = 73000
Intensity = 0.504904
ExposureDose = 0
PixelSpacing = 1.98592
SpotSize = 7
Defocus = -0.781783
ImageShift = 0.188863 0.455373
RotationAngle = 88.2956
ExposureTime = 0.892336
Binning = 1
SubFramePath = E:\map03\map04_37.mrc
CameraIndex = 0
DividedBy2 = 1
MagIndex = 34
MinMaxMean = 0 304 21.8041
TargetDefocus = -5
DateTime = 03-Jun-21  17:56:58

[ZValue = 38]
TiltAngle = 53.9948
StagePosition = 547.01 -316.991
StageZ = -17.0836
Magnification = 73000
Intensity = 0.504904
ExposureDose = 0
PixelSpacing = 1.98592
SpotSize = 7
Defocus = -0.778869
ImageShift = 0.221583 0.485191
RotationAngle = 88.2956
ExposureTime = 0.892336
Binning = 1
SubFramePath = E:\map03\map04_38.mrc
CameraIndex = 0
DividedBy2 = 1
MagIndex = 34
MinMaxMean = 0 478 21.6723
TargetDefocus = -5
DateTime = 03-Jun-21  17:57:29

[ZValue = 39]
TiltAngle = 56.9955
StagePosition = 547.013 -316.949
StageZ = -17.0836
Magnification = 73000
Intensity = 0.504904
ExposureDose = 0
PixelSpacing = 1.98592
SpotSize = 7
Defocus = -0.833134
ImageShift = 0.23606 0.512241
RotationAngle = 88.2956
ExposureTime = 0.892336
Binning = 1
SubFramePath = E:\map03\map04_39.mrc
CameraIndex = 0
DividedBy2 = 1
MagIndex = 34
MinMaxMean = 0 91 21.828
TargetDefocus = -5
DateTime = 03-Jun-21  17:57:50

[ZValue = 40]
TiltAngle = 59.9952
StagePosition = 547.012 -316.911
StageZ = -17.0836
Magnification = 73000
Intensity = 0.504904
ExposureDose = 0
PixelSpacing = 1.98592
SpotSize = 7
Defocus = -0.875415
ImageShift = 0.278089 0.548574
RotationAngle = 88.2956
ExposureTime = 0.892336
Binning = 1
SubFramePath = E:\map03\map04_40.mrc
CameraIndex = 0
DividedBy2 = 1
MagIndex = 34
MinMaxMean = 0 79 22.0377
TargetDefocus = -5
DateTime = 03-Jun-21  17:58:22
