PixelSpacing = 1.98592
ImageFile = map06.mrc
ImageSize = 4096 4096
DataMode = 1

[T = SerialEM: Digitized by Gatan Camera on T20              03-Jun-21  18:45:50    ]

[T =     Tilt axis angle = -1.7, binning = 1  spot = 7  camera = 0  bidir = 0.0]

[ZValue = 0]
TiltAngle = -59.9957
StagePosition = 540.694 -316.738
StageZ = -17.1465
Magnification = 73000
Intensity = 0.504904
ExposureDose = 0
PixelSpacing = 1.98592
SpotSize = 7
Defocus = -3.7112
ImageShift = -0.107724 -0.0433167
RotationAngle = 88.2956
ExposureTime = 0.892336
Binning = 1
SubFramePath = E:\map03\map06_0.mrc
CameraIndex = 0
DividedBy2 = 1
MagIndex = 34
MinMaxMean = 0 71 21.6658
TargetDefocus = -5
DateTime = 03-Jun-21  18:45:41

[ZValue = 1]
TiltAngle = -56.995
StagePosition = 540.696 -316.713
StageZ = -17.1465
Magnification = 73000
Intensity = 0.504904
ExposureDose = 0
PixelSpacing = 1.98592
SpotSize = 7
Defocus = -3.81841
ImageShift = 0.0157169 0.000500154
RotationAngle = 88.2956
ExposureTime = 0.892336
Binning = 1
SubFramePath = E:\map03\map06_1.mrc
CameraIndex = 0
DividedBy2 = 1
MagIndex = 34
MinMaxMean = 0 436 21.5815
TargetDefocus = -5
DateTime = 03-Jun-21  18:45:12

[ZValue = 2]
TiltAngle = -53.9889
StagePosition = 540.691 -316.694
StageZ = -17.1465
Magnification = 73000
Intensity = 0.504904
ExposureDose = 0
PixelSpacing = 1.98592
SpotSize = 7
Defocus = -4.00606
ImageShift = 0.0636853 0.0155819
RotationAngle = 88.2956
ExposureTime = 0.892336
Binning = 1
SubFramePath = E:\map03\map06_2.mrc
CameraIndex = 0
DividedBy2 = 1
MagIndex = 34
MinMaxMean = 0 77 21.8802
TargetDefocus = -5
DateTime = 03-Jun-21  18:44:33

[ZValue = 3]
TiltAngle = -50.9906
StagePosition = 540.69 -316.661
StageZ = -17.1465
Magnification = 73000
Intensity = 0.504904
ExposureDose = 0
PixelSpacing = 1.98592
SpotSize = 7
Defocus = -4.11523
ImageShift = 0.159331 0.0492895
RotationAngle = 88.2956
ExposureTime = 0.892336
Binning = 1
SubFramePath = E:\map03\map06_3.mrc
CameraIndex = 0
DividedBy2 = 1
MagIndex = 34
MinMaxMean = 0 78 21.992
TargetDefocus = -5
DateTime = 03-Jun-21  18:44:04

[ZValue = 4]
TiltAngle = -47.9919
StagePosition = 540.691 -316.628
StageZ = -17.1465
Magnification = 73000
Intensity = 0.504904
ExposureDose = 0
PixelSpacing = 1.98592
SpotSize = 7
Defocus = -4.34687
ImageShift = 0.194704 0.0616911
RotationAngle = 88.2956
ExposureTime = 0.892336
Binning = 1
SubFramePath = E:\map03\map06_4.mrc
CameraIndex = 0
DividedBy2 = 1
MagIndex = 34
MinMaxMean = 0 74 22.0275
TargetDefocus = -5
DateTime = 03-Jun-21  18:43:25

[ZValue = 5]
TiltAngle = -44.9926
StagePosition = 540.69 -316.595
StageZ = -17.1465
Magnification = 73000
Intensity = 0.504904
ExposureDose = 0
PixelSpacing = 1.98592
SpotSize = 7
Defocus = -4.31318
ImageShift = 0.237699 0.07551
RotationAngle = 88.2956
ExposureTime = 0.892336
Binning = 1
SubFramePath = E:\map03\map06_5.mrc
CameraIndex = 0
DividedBy2 = 1
MagIndex = 34
MinMaxMean = 0 78 22.0458
TargetDefocus = -5
DateTime = 03-Jun-21  18:42:56

[ZValue = 6]
TiltAngle = -41.9919
StagePosition = 540.691 -316.56
StageZ = -17.1465
Magnification = 73000
Intensity = 0.504904
ExposureDose = 0
PixelSpacing = 1.98592
SpotSize = 7
Defocus = -4.43595
ImageShift = 0.244508 0.0768737
RotationAngle = 88.2956
ExposureTime = 0.892336
Binning = 1
SubFramePath = E:\map03\map06_6.mrc
CameraIndex = 0
DividedBy2 = 1
MagIndex = 34
MinMaxMean = 0 583 22.1044
TargetDefocus = -5
DateTime = 03-Jun-21  18:42:17

[ZValue = 7]
TiltAngle = -38.9912
StagePosition = 540.691 -316.526
StageZ = -17.1465
Magnification = 73000
Intensity = 0.504904
ExposureDose = 0
PixelSpacing = 1.98592
SpotSize = 7
Defocus = -4.40542
ImageShift = 0.20769 0.0617387
RotationAngle = 88.2956
ExposureTime = 0.892336
Binning = 1
SubFramePath = E:\map03\map06_7.mrc
CameraIndex = 0
DividedBy2 = 1
MagIndex = 34
MinMaxMean = 0 436 22.1178
TargetDefocus = -5
DateTime = 03-Jun-21  18:41:46

[ZValue = 8]
TiltAngle = -35.9915
StagePosition = 540.69 -316.489
StageZ = -17.1465
Magnification = 73000
Intensity = 0.504904
ExposureDose = 0
PixelSpacing = 1.98592
SpotSize = 7
Defocus = -4.36857
ImageShift = 0.169958 0.0463653
RotationAngle = 88.2956
ExposureTime = 0.892336
Binning = 1
SubFramePath = E:\map03\map06_8.mrc
CameraIndex = 0
DividedBy2 = 1
MagIndex = 34
MinMaxMean = 0 135 22.2233
TargetDefocus = -5
DateTime = 03-Jun-21  18:41:25

[ZValue = 9]
TiltAngle = -32.9922
StagePosition = 540.69 -316.445
StageZ = -17.1465
Magnification = 73000
Intensity = 0.504904
ExposureDose = 0
PixelSpacing = 1.98592
SpotSize = 7
Defocus = -4.38236
ImageShift = 0.106992 0.00822625
RotationAngle = 88.2956
ExposureTime = 0.892336
Binning = 1
SubFramePath = E:\map03\map06_9.mrc
CameraIndex = 0
DividedBy2 = 1
MagIndex = 34
MinMaxMean = 0 102 22.2526
TargetDefocus = -5
DateTime = 03-Jun-21  18:40:54

[ZValue = 10]
TiltAngle = -29.993
StagePosition = 540.69 -316.403
StageZ = -17.1465
Magnification = 73000
Intensity = 0.504904
ExposureDose = 0
PixelSpacing = 1.98592
SpotSize = 7
Defocus = -4.32051
ImageShift = 0.0113652 -0.0384336
RotationAngle = 88.2956
ExposureTime = 0.892336
Binning = 1
SubFramePath = E:\map03\map06_10.mrc
CameraIndex = 0
DividedBy2 = 1
MagIndex = 34
MinMaxMean = 0 193 22.0776
TargetDefocus = -5
DateTime = 03-Jun-21  18:40:25

[ZValue = 11]
TiltAngle = -26.9913
StagePosition = 540.685 -316.357
StageZ = -17.1465
Magnification = 73000
Intensity = 0.504904
ExposureDose = 0
PixelSpacing = 1.98592
SpotSize = 7
Defocus = -4.26656
ImageShift = -0.0713033 -0.0728816
RotationAngle = 88.2956
ExposureTime = 0.892336
Binning = 1
SubFramePath = E:\map03\map06_11.mrc
CameraIndex = 0
DividedBy2 = 1
MagIndex = 34
MinMaxMean = 0 79 22.0019
TargetDefocus = -5
DateTime = 03-Jun-21  18:39:46

[ZValue = 12]
TiltAngle = -23.993
StagePosition = 540.683 -316.306
StageZ = -17.1465
Magnification = 73000
Intensity = 0.504904
ExposureDose = 0
PixelSpacing = 1.98592
SpotSize = 7
Defocus = -4.26036
ImageShift = -0.120267 -0.0953293
RotationAngle = 88.2956
ExposureTime = 0.892336
Binning = 1
SubFramePath = E:\map03\map06_12.mrc
CameraIndex = 0
DividedBy2 = 1
MagIndex = 34
MinMaxMean = 0 76 22.4286
TargetDefocus = -5
DateTime = 03-Jun-21  18:39:15

[ZValue = 13]
TiltAngle = -20.9918
StagePosition = 540.677 -316.253
StageZ = -17.1465
Magnification = 73000
Intensity = 0.504904
ExposureDose = 0
PixelSpacing = 1.98592
SpotSize = 7
Defocus = -4.14284
ImageShift = -0.15584 -0.117107
RotationAngle = 88.2956
ExposureTime = 0.892336
Binning = 1
SubFramePath = E:\map03\map06_13.mrc
CameraIndex = 0
DividedBy2 = 1
MagIndex = 34
MinMaxMean = 0 96 21.9866
TargetDefocus = -5
DateTime = 03-Jun-21  18:38:55

[ZValue = 14]
TiltAngle = -17.9926
StagePosition = 540.673 -316.195
StageZ = -17.1465
Magnification = 73000
Intensity = 0.504904
ExposureDose = 0
PixelSpacing = 1.98592
SpotSize = 7
Defocus = -3.98992
ImageShift = -0.180856 -0.127293
RotationAngle = 88.2956
ExposureTime = 0.892336
Binning = 1
SubFramePath = E:\map03\map06_14.mrc
CameraIndex = 0
DividedBy2 = 1
MagIndex = 34
MinMaxMean = 0 401 22.1487
TargetDefocus = -5
DateTime = 03-Jun-21  18:38:24

[ZValue = 15]
TiltAngle = -14.9918
StagePosition = 540.667 -316.142
StageZ = -17.1465
Magnification = 73000
Intensity = 0.504904
ExposureDose = 0
PixelSpacing = 1.98592
SpotSize = 7
Defocus = -3.91584
ImageShift = -0.192792 -0.150048
RotationAngle = 88.2956
ExposureTime = 0.892336
Binning = 1
SubFramePath = E:\map03\map06_15.mrc
CameraIndex = 0
DividedBy2 = 1
MagIndex = 34
MinMaxMean = 0 87 22.1893
TargetDefocus = -5
DateTime = 03-Jun-21  18:38:03

[ZValue = 16]
TiltAngle = -11.9931
StagePosition = 540.653 -316.108
StageZ = -17.1465
Magnification = 73000
Intensity = 0.504904
ExposureDose = 0
PixelSpacing = 1.98592
SpotSize = 7
Defocus = -3.79297
ImageShift = -0.214416 -0.180565
RotationAngle = 88.2956
ExposureTime = 0.892336
Binning = 1
SubFramePath = E:\map03\map06_16.mrc
CameraIndex = 0
DividedBy2 = 1
MagIndex = 34
MinMaxMean = 0 153 22.0848
TargetDefocus = -5
DateTime = 03-Jun-21  18:37:32

[ZValue = 17]
TiltAngle = -8.99286
StagePosition = 540.64 -316.077
StageZ = -17.1465
Magnification = 73000
Intensity = 0.504904
ExposureDose = 0
PixelSpacing = 1.98592
SpotSize = 7
Defocus = -4.05992
ImageShift = -0.235979 -0.210009
RotationAngle = 88.2956
ExposureTime = 0.892336
Binning = 1
SubFramePath = E:\map03\map06_17.mrc
CameraIndex = 0
DividedBy2 = 1
MagIndex = 34
MinMaxMean = 0 246 22.2209
TargetDefocus = -5
DateTime = 03-Jun-21  18:37:01

[ZValue = 18]
TiltAngle = -5.99313
StagePosition = 540.629 -316.047
StageZ = -17.1465
Magnification = 73000
Intensity = 0.504904
ExposureDose = 0
PixelSpacing = 1.98592
SpotSize = 7
Defocus = -3.64481
ImageShift = -0.247995 -0.233255
RotationAngle = 88.2956
ExposureTime = 0.892336
Binning = 1
SubFramePath = E:\map03\map06_18.mrc
CameraIndex = 0
DividedBy2 = 1
MagIndex = 34
MinMaxMean = 0 77 22.2343
TargetDefocus = -5
DateTime = 03-Jun-21  18:36:40

[ZValue = 19]
TiltAngle = -2.99242
StagePosition = 540.611 -316.017
StageZ = -17.1465
Magnification = 73000
Intensity = 0.504904
ExposureDose = 0
PixelSpacing = 1.98592
SpotSize = 7
Defocus = -3.54323
ImageShift = -0.259799 -0.253885
RotationAngle = 88.2956
ExposureTime = 0.892336
Binning = 1
SubFramePath = E:\map03\map06_19.mrc
CameraIndex = 0
DividedBy2 = 1
MagIndex = 34
MinMaxMean = 0 88 22.0238
TargetDefocus = -5
DateTime = 03-Jun-21  18:36:09

[ZValue = 20]
TiltAngle = 0.011224
StagePosition = 540.6 -315.983
StageZ = -17.1465
Magnification = 73000
Intensity = 0.504904
ExposureDose = 0
PixelSpacing = 1.98592
SpotSize = 7
Defocus = -2.97135
ImageShift = -0.267147 -0.283704
RotationAngle = 88.2956
ExposureTime = 0.892336
Binning = 1
SubFramePath = E:\map03\map06_20.mrc
CameraIndex = 0
DividedBy2 = 1
MagIndex = 34
MinMaxMean = 0 91 21.9569
TargetDefocus = -5
DateTime = 03-Jun-21  18:35:39

[ZValue = 21]
TiltAngle = 2.99827
StagePosition = 540.57 -315.957
StageZ = -17.1465
Magnification = 73000
Intensity = 0.504904
ExposureDose = 0
PixelSpacing = 1.98592
SpotSize = 7
Defocus = -1.82
ImageShift = -0.374634 -0.300911
RotationAngle = 88.2956
ExposureTime = 0.892336
Binning = 1
SubFramePath = E:\map03\map06_21.mrc
CameraIndex = 0
DividedBy2 = 1
MagIndex = 34
MinMaxMean = 0 111 22.479
TargetDefocus = -5
DateTime = 03-Jun-21  18:48:19

[ZValue = 22]
TiltAngle = 5.9985
StagePosition = 540.573 -315.905
StageZ = -17.1465
Magnification = 73000
Intensity = 0.504904
ExposureDose = 0
PixelSpacing = 1.98592
SpotSize = 7
Defocus = -1.586
ImageShift = -0.346192 -0.264431
RotationAngle = 88.2956
ExposureTime = 0.892336
Binning = 1
SubFramePath = E:\map03\map06_22.mrc
CameraIndex = 0
DividedBy2 = 1
MagIndex = 34
MinMaxMean = 0 137 22.5676
TargetDefocus = -5
DateTime = 03-Jun-21  18:48:50

[ZValue = 23]
TiltAngle = 8.99823
StagePosition = 540.574 -315.853
StageZ = -17.1465
Magnification = 73000
Intensity = 0.504904
ExposureDose = 0
PixelSpacing = 1.98592
SpotSize = 7
Defocus = -1.33891
ImageShift = -0.324793 -0.241161
RotationAngle = 88.2956
ExposureTime = 0.892336
Binning = 1
SubFramePath = E:\map03\map06_23.mrc
CameraIndex = 0
DividedBy2 = 1
MagIndex = 34
MinMaxMean = 0 75 22.5375
TargetDefocus = -5
DateTime = 03-Jun-21  18:49:22

[ZValue = 24]
TiltAngle = 11.998
StagePosition = 540.576 -315.807
StageZ = -17.1465
Magnification = 73000
Intensity = 0.504904
ExposureDose = 0
PixelSpacing = 1.98592
SpotSize = 7
Defocus = -1.10054
ImageShift = -0.305605 -0.212377
RotationAngle = 88.2956
ExposureTime = 0.892336
Binning = 1
SubFramePath = E:\map03\map06_24.mrc
CameraIndex = 0
DividedBy2 = 1
MagIndex = 34
MinMaxMean = 0 80 22.3175
TargetDefocus = -5
DateTime = 03-Jun-21  18:49:42

[ZValue = 25]
TiltAngle = 14.9977
StagePosition = 540.58 -315.761
StageZ = -17.1465
Magnification = 73000
Intensity = 0.504904
ExposureDose = 0
PixelSpacing = 1.98592
SpotSize = 7
Defocus = -1.01416
ImageShift = -0.259137 -0.163531
RotationAngle = 88.2956
ExposureTime = 0.892336
Binning = 1
SubFramePath = E:\map03\map06_25.mrc
CameraIndex = 0
DividedBy2 = 1
MagIndex = 34
MinMaxMean = 0 71 22.5883
TargetDefocus = -5
DateTime = 03-Jun-21  18:50:14

[ZValue = 26]
TiltAngle = 17.9984
StagePosition = 540.585 -315.717
StageZ = -17.1465
Magnification = 73000
Intensity = 0.504904
ExposureDose = 0
PixelSpacing = 1.98592
SpotSize = 7
Defocus = -0.949872
ImageShift = -0.237706 -0.123448
RotationAngle = 88.2956
ExposureTime = 0.892336
Binning = 1
SubFramePath = E:\map03\map06_26.mrc
CameraIndex = 0
DividedBy2 = 1
MagIndex = 34
MinMaxMean = 0 75 22.2513
TargetDefocus = -5
DateTime = 03-Jun-21  18:50:45

[ZValue = 27]
TiltAngle = 20.9972
StagePosition = 540.588 -315.676
StageZ = -17.1465
Magnification = 73000
Intensity = 0.504904
ExposureDose = 0
PixelSpacing = 1.98592
SpotSize = 7
Defocus = -0.787501
ImageShift = -0.208132 -0.0925291
RotationAngle = 88.2956
ExposureTime = 0.892336
Binning = 1
SubFramePath = E:\map03\map06_27.mrc
CameraIndex = 0
DividedBy2 = 1
MagIndex = 34
MinMaxMean = 0 99 22.4948
TargetDefocus = -5
DateTime = 03-Jun-21  18:51:06

[ZValue = 28]
TiltAngle = 23.9954
StagePosition = 540.597 -315.628
StageZ = -17.1465
Magnification = 73000
Intensity = 0.504904
ExposureDose = 0
PixelSpacing = 1.98592
SpotSize = 7
Defocus = -0.662532
ImageShift = -0.171207 -0.0555619
RotationAngle = 88.2956
ExposureTime = 0.892336
Binning = 1
SubFramePath = E:\map03\map06_28.mrc
CameraIndex = 0
DividedBy2 = 1
MagIndex = 34
MinMaxMean = 0 75 22.4122
TargetDefocus = -5
DateTime = 03-Jun-21  18:51:37

[ZValue = 29]
TiltAngle = 26.9952
StagePosition = 540.599 -315.588
StageZ = -17.1465
Magnification = 73000
Intensity = 0.504904
ExposureDose = 0
PixelSpacing = 1.98592
SpotSize = 7
Defocus = -0.552882
ImageShift = -0.115993 -0.00150862
RotationAngle = 88.2956
ExposureTime = 0.892336
Binning = 1
SubFramePath = E:\map03\map06_29.mrc
CameraIndex = 0
DividedBy2 = 1
MagIndex = 34
MinMaxMean = 0 320 22.2003
TargetDefocus = -5
DateTime = 03-Jun-21  18:51:58

[ZValue = 30]
TiltAngle = 29.9949
StagePosition = 540.605 -315.548
StageZ = -17.1465
Magnification = 73000
Intensity = 0.504904
ExposureDose = 0
PixelSpacing = 1.98592
SpotSize = 7
Defocus = -0.440279
ImageShift = -0.0761701 0.0468829
RotationAngle = 88.2956
ExposureTime = 0.892336
Binning = 1
SubFramePath = E:\map03\map06_30.mrc
CameraIndex = 0
DividedBy2 = 1
MagIndex = 34
MinMaxMean = 0 321 22.2829
TargetDefocus = -5
DateTime = 03-Jun-21  18:52:28

[ZValue = 31]
TiltAngle = 32.9947
StagePosition = 540.608 -315.511
StageZ = -17.1465
Magnification = 73000
Intensity = 0.504904
ExposureDose = 0
PixelSpacing = 1.98592
SpotSize = 7
Defocus = -0.302033
ImageShift = -0.0553057 0.0922538
RotationAngle = 88.2956
ExposureTime = 0.892336
Binning = 1
SubFramePath = E:\map03\map06_31.mrc
CameraIndex = 0
DividedBy2 = 1
MagIndex = 34
MinMaxMean = 0 631 22.2751
TargetDefocus = -5
DateTime = 03-Jun-21  18:52:49

[ZValue = 32]
TiltAngle = 35.9939
StagePosition = 540.612 -315.471
StageZ = -17.1465
Magnification = 73000
Intensity = 0.504904
ExposureDose = 0
PixelSpacing = 1.98592
SpotSize = 7
Defocus = -0.27924
ImageShift = -0.0202777 0.135292
RotationAngle = 88.2956
ExposureTime = 0.892336
Binning = 1
SubFramePath = E:\map03\map06_32.mrc
CameraIndex = 0
DividedBy2 = 1
MagIndex = 34
MinMaxMean = 0 78 22.1784
TargetDefocus = -5
DateTime = 03-Jun-21  18:53:20

[ZValue = 33]
TiltAngle = 38.9936
StagePosition = 540.618 -315.429
StageZ = -17.1465
Magnification = 73000
Intensity = 0.504904
ExposureDose = 0
PixelSpacing = 1.98592
SpotSize = 7
Defocus = -0.173214
ImageShift = 0.00249777 0.176222
RotationAngle = 88.2956
ExposureTime = 0.892336
Binning = 1
SubFramePath = E:\map03\map06_33.mrc
CameraIndex = 0
DividedBy2 = 1
MagIndex = 34
MinMaxMean = 0 93 21.9189
TargetDefocus = -5
DateTime = 03-Jun-21  18:53:41

[ZValue = 34]
TiltAngle = 41.9953
StagePosition = 540.621 -315.395
StageZ = -17.1465
Magnification = 73000
Intensity = 0.504904
ExposureDose = 0
PixelSpacing = 1.98592
SpotSize = 7
Defocus = -0.262506
ImageShift = 0.035477 0.210452
RotationAngle = 88.2956
ExposureTime = 0.892336
Binning = 1
SubFramePath = E:\map03\map06_34.mrc
CameraIndex = 0
DividedBy2 = 1
MagIndex = 34
MinMaxMean = 0 70 22.4502
TargetDefocus = -5
DateTime = 03-Jun-21  18:54:12

[ZValue = 35]
TiltAngle = 44.9951
StagePosition = 540.626 -315.352
StageZ = -17.1465
Magnification = 73000
Intensity = 0.504904
ExposureDose = 0
PixelSpacing = 1.98592
SpotSize = 7
Defocus = -0.194012
ImageShift = 0.0754448 0.24715
RotationAngle = 88.2956
ExposureTime = 0.892336
Binning = 1
SubFramePath = E:\map03\map06_35.mrc
CameraIndex = 0
DividedBy2 = 1
MagIndex = 34
MinMaxMean = 0 87 22.5994
TargetDefocus = -5
DateTime = 03-Jun-21  18:54:33

[ZValue = 36]
TiltAngle = 47.9953
StagePosition = 540.624 -315.314
StageZ = -17.1465
Magnification = 73000
Intensity = 0.504904
ExposureDose = 0
PixelSpacing = 1.98592
SpotSize = 7
Defocus = -0.133848
ImageShift = 0.118017 0.280548
RotationAngle = 88.2956
ExposureTime = 0.892336
Binning = 1
SubFramePath = E:\map03\map06_36.mrc
CameraIndex = 0
DividedBy2 = 1
MagIndex = 34
MinMaxMean = 0 339 22.0615
TargetDefocus = -5
DateTime = 03-Jun-21  18:55:05

[ZValue = 37]
TiltAngle = 50.9921
StagePosition = 540.63 -315.265
StageZ = -17.1465
Magnification = 73000
Intensity = 0.504904
ExposureDose = 0
PixelSpacing = 1.98592
SpotSize = 7
Defocus = -0.116154
ImageShift = 0.142589 0.306764
RotationAngle = 88.2956
ExposureTime = 0.892336
Binning = 1
SubFramePath = E:\map03\map06_37.mrc
CameraIndex = 0
DividedBy2 = 1
MagIndex = 34
MinMaxMean = 0 220 21.8312
TargetDefocus = -5
DateTime = 03-Jun-21  18:55:25

[ZValue = 38]
TiltAngle = 53.9952
StagePosition = 540.633 -315.235
StageZ = -17.1465
Magnification = 73000
Intensity = 0.504904
ExposureDose = 0
PixelSpacing = 1.98592
SpotSize = 7
Defocus = 0.0220857
ImageShift = 0.184 0.336941
RotationAngle = 88.2956
ExposureTime = 0.892336
Binning = 1
SubFramePath = E:\map03\map06_38.mrc
CameraIndex = 0
DividedBy2 = 1
MagIndex = 34
MinMaxMean = 0 361 21.9845
TargetDefocus = -5
DateTime = 03-Jun-21  18:55:57

[ZValue = 39]
TiltAngle = 56.9955
StagePosition = 540.633 -315.196
StageZ = -17.1465
Magnification = 73000
Intensity = 0.504904
ExposureDose = 0
PixelSpacing = 1.98592
SpotSize = 7
Defocus = -0.0182104
ImageShift = 0.215997 0.366479
RotationAngle = 88.2956
ExposureTime = 0.892336
Binning = 1
SubFramePath = E:\map03\map06_39.mrc
CameraIndex = 0
DividedBy2 = 1
MagIndex = 34
MinMaxMean = 0 71 21.7583
TargetDefocus = -5
DateTime = 03-Jun-21  18:56:28

[ZValue = 40]
TiltAngle = 59.9957
StagePosition = 540.636 -315.162
StageZ = -17.1465
Magnification = 73000
Intensity = 0.504904
ExposureDose = 0
PixelSpacing = 1.98592
SpotSize = 7
Defocus = 0.0597568
ImageShift = 0.267578 0.404491
RotationAngle = 88.2956
ExposureTime = 0.892336
Binning = 1
SubFramePath = E:\map03\map06_40.mrc
CameraIndex = 0
DividedBy2 = 1
MagIndex = 34
MinMaxMean = 0 82 21.6134
TargetDefocus = -5
DateTime = 03-Jun-21  18:56:49
