PixelSpacing = 1.98592
ImageFile = map03.mrc
ImageSize = 4096 4096
DataMode = 1

[T = SerialEM: Digitized by Gatan Camera on T20              03-Jun-21  17:08:00    ]

[T =     Tilt axis angle = -1.7, binning = 1  spot = 7  camera = 0  bidir = 0.0]

[ZValue = 0]
TiltAngle = -59.9957
StagePosition = 547.962 -321.488
StageZ = -13.0713
Magnification = 73000
Intensity = 0.504904
ExposureDose = 0
PixelSpacing = 1.98592
SpotSize = 7
Defocus = -4.10479
ImageShift = -0.0689598 0.0698655
RotationAngle = 88.2956
ExposureTime = 0.892336
Binning = 1
SubFramePath = E:\map03\map03_0.mrc
CameraIndex = 0
DividedBy2 = 1
MagIndex = 34
MinMaxMean = 0 79 22.3997
TargetDefocus = -5
DateTime = 03-Jun-21  17:07:51

[ZValue = 1]
TiltAngle = -56.9945
StagePosition = 547.959 -321.457
StageZ = -13.0713
Magnification = 73000
Intensity = 0.504904
ExposureDose = 0
PixelSpacing = 1.98592
SpotSize = 7
Defocus = -4.33387
ImageShift = 0.00266857 0.0988319
RotationAngle = 88.2956
ExposureTime = 0.892336
Binning = 1
SubFramePath = E:\map03\map03_1.mrc
CameraIndex = 0
DividedBy2 = 1
MagIndex = 34
MinMaxMean = 0 192 22.3681
TargetDefocus = -5
DateTime = 03-Jun-21  17:07:22

[ZValue = 2]
TiltAngle = -53.9884
StagePosition = 547.957 -321.436
StageZ = -13.0713
Magnification = 73000
Intensity = 0.504904
ExposureDose = 0
PixelSpacing = 1.98592
SpotSize = 7
Defocus = -4.09702
ImageShift = 0.0608658 0.12071
RotationAngle = 88.2956
ExposureTime = 0.892336
Binning = 1
SubFramePath = E:\map03\map03_2.mrc
CameraIndex = 0
DividedBy2 = 1
MagIndex = 34
MinMaxMean = 0 84 22.6824
TargetDefocus = -5
DateTime = 03-Jun-21  17:06:39

[ZValue = 3]
TiltAngle = -50.9897
StagePosition = 547.959 -321.4
StageZ = -13.0713
Magnification = 73000
Intensity = 0.504904
ExposureDose = 0
PixelSpacing = 1.98592
SpotSize = 7
Defocus = -4.70212
ImageShift = 0.165296 0.16114
RotationAngle = 88.2956
ExposureTime = 0.892336
Binning = 1
SubFramePath = E:\map03\map03_3.mrc
CameraIndex = 0
DividedBy2 = 1
MagIndex = 34
MinMaxMean = 0 84 22.4754
TargetDefocus = -5
DateTime = 03-Jun-21  17:06:05

[ZValue = 4]
TiltAngle = -47.9914
StagePosition = 547.959 -321.362
StageZ = -13.0713
Magnification = 73000
Intensity = 0.504904
ExposureDose = 0
PixelSpacing = 1.98592
SpotSize = 7
Defocus = -4.55517
ImageShift = 0.114635 0.146817
RotationAngle = 88.2956
ExposureTime = 0.892336
Binning = 1
SubFramePath = E:\map03\map03_4.mrc
CameraIndex = 0
DividedBy2 = 1
MagIndex = 34
MinMaxMean = 0 170 22.6772
TargetDefocus = -5
DateTime = 03-Jun-21  17:05:44

[ZValue = 5]
TiltAngle = -44.9926
StagePosition = 547.962 -321.322
StageZ = -13.0713
Magnification = 73000
Intensity = 0.504904
ExposureDose = 0
PixelSpacing = 1.98592
SpotSize = 7
Defocus = -4.44638
ImageShift = 0.0933229 0.137536
RotationAngle = 88.2956
ExposureTime = 0.892336
Binning = 1
SubFramePath = E:\map03\map03_5.mrc
CameraIndex = 0
DividedBy2 = 1
MagIndex = 34
MinMaxMean = 0 82 22.7102
TargetDefocus = -5
DateTime = 03-Jun-21  17:05:10

[ZValue = 6]
TiltAngle = -41.9919
StagePosition = 547.96 -321.281
StageZ = -13.0713
Magnification = 73000
Intensity = 0.504904
ExposureDose = 0
PixelSpacing = 1.98592
SpotSize = 7
Defocus = -4.32296
ImageShift = 0.0725507 0.135177
RotationAngle = 88.2956
ExposureTime = 0.892336
Binning = 1
SubFramePath = E:\map03\map03_6.mrc
CameraIndex = 0
DividedBy2 = 1
MagIndex = 34
MinMaxMean = 0 87 22.922
TargetDefocus = -5
DateTime = 03-Jun-21  17:04:49

[ZValue = 7]
TiltAngle = -38.9902
StagePosition = 547.959 -321.233
StageZ = -13.0713
Magnification = 73000
Intensity = 0.504904
ExposureDose = 0
PixelSpacing = 1.98592
SpotSize = 7
Defocus = -4.10309
ImageShift = 0.053214 0.131197
RotationAngle = 88.2956
ExposureTime = 0.892336
Binning = 1
SubFramePath = E:\map03\map03_7.mrc
CameraIndex = 0
DividedBy2 = 1
MagIndex = 34
MinMaxMean = 0 228 22.5765
TargetDefocus = -5
DateTime = 03-Jun-21  17:04:07

[ZValue = 8]
TiltAngle = -35.9915
StagePosition = 547.957 -321.188
StageZ = -13.0713
Magnification = 73000
Intensity = 0.504904
ExposureDose = 0
PixelSpacing = 1.98592
SpotSize = 7
Defocus = -4.01674
ImageShift = 0.0419991 0.130084
RotationAngle = 88.2956
ExposureTime = 0.892336
Binning = 1
SubFramePath = E:\map03\map03_8.mrc
CameraIndex = 0
DividedBy2 = 1
MagIndex = 34
MinMaxMean = 0 98 22.5587
TargetDefocus = -5
DateTime = 03-Jun-21  17:03:46

[ZValue = 9]
TiltAngle = -32.9912
StagePosition = 547.957 -321.134
StageZ = -13.0713
Magnification = 73000
Intensity = 0.504904
ExposureDose = 0
PixelSpacing = 1.98592
SpotSize = 7
Defocus = -3.84226
ImageShift = 0.0364909 0.130224
RotationAngle = 88.2956
ExposureTime = 0.892336
Binning = 1
SubFramePath = E:\map03\map03_9.mrc
CameraIndex = 0
DividedBy2 = 1
MagIndex = 34
MinMaxMean = 0 78 22.6009
TargetDefocus = -5
DateTime = 03-Jun-21  17:03:11

[ZValue = 10]
TiltAngle = -29.993
StagePosition = 547.954 -321.079
StageZ = -13.0713
Magnification = 73000
Intensity = 0.504904
ExposureDose = 0
PixelSpacing = 1.98592
SpotSize = 7
Defocus = -3.78179
ImageShift = 0.0316693 0.13062
RotationAngle = 88.2956
ExposureTime = 0.892336
Binning = 1
SubFramePath = E:\map03\map03_10.mrc
CameraIndex = 0
DividedBy2 = 1
MagIndex = 34
MinMaxMean = 0 143 22.526
TargetDefocus = -5
DateTime = 03-Jun-21  17:02:43

[ZValue = 11]
TiltAngle = -26.9913
StagePosition = 547.951 -321.026
StageZ = -13.0713
Magnification = 73000
Intensity = 0.504904
ExposureDose = 0
PixelSpacing = 1.98592
SpotSize = 7
Defocus = -3.73693
ImageShift = 0.0364456 0.129421
RotationAngle = 88.2956
ExposureTime = 0.892336
Binning = 1
SubFramePath = E:\map03\map03_11.mrc
CameraIndex = 0
DividedBy2 = 1
MagIndex = 34
MinMaxMean = 0 89 22.8113
TargetDefocus = -5
DateTime = 03-Jun-21  17:02:08

[ZValue = 12]
TiltAngle = -23.993
StagePosition = 547.95 -320.969
StageZ = -13.0713
Magnification = 73000
Intensity = 0.504904
ExposureDose = 0
PixelSpacing = 1.98592
SpotSize = 7
Defocus = -3.70157
ImageShift = 0.0444374 0.132839
RotationAngle = 88.2956
ExposureTime = 0.892336
Binning = 1
SubFramePath = E:\map03\map03_12.mrc
CameraIndex = 0
DividedBy2 = 1
MagIndex = 34
MinMaxMean = 0 82 22.5376
TargetDefocus = -5
DateTime = 03-Jun-21  17:01:33

[ZValue = 13]
TiltAngle = -20.9923
StagePosition = 547.944 -320.915
StageZ = -13.0713
Magnification = 73000
Intensity = 0.504904
ExposureDose = 0
PixelSpacing = 1.98592
SpotSize = 7
Defocus = -3.61597
ImageShift = 0.0480382 0.126168
RotationAngle = 88.2956
ExposureTime = 0.892336
Binning = 1
SubFramePath = E:\map03\map03_13.mrc
CameraIndex = 0
DividedBy2 = 1
MagIndex = 34
MinMaxMean = 0 73 22.5876
TargetDefocus = -5
DateTime = 03-Jun-21  17:01:13

[ZValue = 14]
TiltAngle = -17.9926
StagePosition = 547.936 -320.86
StageZ = -13.0713
Magnification = 73000
Intensity = 0.504904
ExposureDose = 0
PixelSpacing = 1.98592
SpotSize = 7
Defocus = -3.4332
ImageShift = 0.0462458 0.115601
RotationAngle = 88.2956
ExposureTime = 0.892336
Binning = 1
SubFramePath = E:\map03\map03_14.mrc
CameraIndex = 0
DividedBy2 = 1
MagIndex = 34
MinMaxMean = 0 599 22.7358
TargetDefocus = -5
DateTime = 03-Jun-21  17:00:38

[ZValue = 15]
TiltAngle = -14.9918
StagePosition = 547.927 -320.808
StageZ = -13.0713
Magnification = 73000
Intensity = 0.504904
ExposureDose = 0
PixelSpacing = 1.98592
SpotSize = 7
Defocus = -3.42533
ImageShift = 0.0832386 0.123427
RotationAngle = 88.2956
ExposureTime = 0.892336
Binning = 1
SubFramePath = E:\map03\map03_15.mrc
CameraIndex = 0
DividedBy2 = 1
MagIndex = 34
MinMaxMean = 0 204 22.8228
TargetDefocus = -5
DateTime = 03-Jun-21  17:00:17

[ZValue = 16]
TiltAngle = -11.9931
StagePosition = 547.913 -320.764
StageZ = -13.0713
Magnification = 73000
Intensity = 0.504904
ExposureDose = 0
PixelSpacing = 1.98592
SpotSize = 7
Defocus = -3.3527
ImageShift = 0.0945136 0.102482
RotationAngle = 88.2956
ExposureTime = 0.892336
Binning = 1
SubFramePath = E:\map03\map03_16.mrc
CameraIndex = 0
DividedBy2 = 1
MagIndex = 34
MinMaxMean = 0 611 22.768
TargetDefocus = -5
DateTime = 03-Jun-21  16:59:42

[ZValue = 17]
TiltAngle = -8.99286
StagePosition = 547.903 -320.731
StageZ = -13.0713
Magnification = 73000
Intensity = 0.504904
ExposureDose = 0
PixelSpacing = 1.98592
SpotSize = 7
Defocus = -3.43046
ImageShift = 0.103241 0.0913566
RotationAngle = 88.2956
ExposureTime = 0.892336
Binning = 1
SubFramePath = E:\map03\map03_17.mrc
CameraIndex = 0
DividedBy2 = 1
MagIndex = 34
MinMaxMean = 0 346 22.7423
TargetDefocus = -5
DateTime = 03-Jun-21  16:59:08

[ZValue = 18]
TiltAngle = -5.99313
StagePosition = 547.886 -320.705
StageZ = -13.0713
Magnification = 73000
Intensity = 0.504904
ExposureDose = 0
PixelSpacing = 1.98592
SpotSize = 7
Defocus = -3.33694
ImageShift = 0.112055 0.0714998
RotationAngle = 88.2956
ExposureTime = 0.892336
Binning = 1
SubFramePath = E:\map03\map03_18.mrc
CameraIndex = 0
DividedBy2 = 1
MagIndex = 34
MinMaxMean = 0 80 22.6213
TargetDefocus = -5
DateTime = 03-Jun-21  16:58:47

[ZValue = 19]
TiltAngle = -2.99193
StagePosition = 547.874 -320.68
StageZ = -13.0713
Magnification = 73000
Intensity = 0.504904
ExposureDose = 0
PixelSpacing = 1.98592
SpotSize = 7
Defocus = -3.31468
ImageShift = 0.128897 0.0534753
RotationAngle = 88.2956
ExposureTime = 0.892336
Binning = 1
SubFramePath = E:\map03\map03_19.mrc
CameraIndex = 0
DividedBy2 = 1
MagIndex = 34
MinMaxMean = 0 75 22.5344
TargetDefocus = -5
DateTime = 03-Jun-21  16:58:13

[ZValue = 20]
TiltAngle = 0.0122
StagePosition = 547.859 -320.652
StageZ = -13.0713
Magnification = 73000
Intensity = 0.504904
ExposureDose = 0
PixelSpacing = 1.98592
SpotSize = 7
Defocus = -3.18553
ImageShift = 0.140254 0.029487
RotationAngle = 88.2956
ExposureTime = 0.892336
Binning = 1
SubFramePath = E:\map03\map03_20.mrc
CameraIndex = 0
DividedBy2 = 1
MagIndex = 34
MinMaxMean = 0 81 22.4275
TargetDefocus = -5
DateTime = 03-Jun-21  16:57:38

[ZValue = 21]
TiltAngle = 2.99827
StagePosition = 547.839 -320.674
StageZ = -13.0713
Magnification = 73000
Intensity = 0.504904
ExposureDose = 0
PixelSpacing = 1.98592
SpotSize = 7
Defocus = -1.6574
ImageShift = -0.168362 -0.128542
RotationAngle = 88.2956
ExposureTime = 0.892336
Binning = 1
SubFramePath = E:\map03\map03_21.mrc
CameraIndex = 0
DividedBy2 = 1
MagIndex = 34
MinMaxMean = 0 78 22.5548
TargetDefocus = -5
DateTime = 03-Jun-21  17:10:27

[ZValue = 22]
TiltAngle = 5.9985
StagePosition = 547.841 -320.632
StageZ = -13.0713
Magnification = 73000
Intensity = 0.504904
ExposureDose = 0
PixelSpacing = 1.98592
SpotSize = 7
Defocus = -1.80678
ImageShift = -0.138953 -0.103474
RotationAngle = 88.2956
ExposureTime = 0.892336
Binning = 1
SubFramePath = E:\map03\map03_22.mrc
CameraIndex = 0
DividedBy2 = 1
MagIndex = 34
MinMaxMean = 0 76 22.4866
TargetDefocus = -5
DateTime = 03-Jun-21  17:11:01

[ZValue = 23]
TiltAngle = 8.99774
StagePosition = 547.842 -320.589
StageZ = -13.0713
Magnification = 73000
Intensity = 0.504904
ExposureDose = 0
PixelSpacing = 1.98592
SpotSize = 7
Defocus = -1.6662
ImageShift = -0.115923 -0.0801098
RotationAngle = 88.2956
ExposureTime = 0.892336
Binning = 1
SubFramePath = E:\map03\map03_23.mrc
CameraIndex = 0
DividedBy2 = 1
MagIndex = 34
MinMaxMean = 0 217 22.3258
TargetDefocus = -5
DateTime = 03-Jun-21  17:11:36

[ZValue = 24]
TiltAngle = 11.9975
StagePosition = 547.845 -320.546
StageZ = -13.0713
Magnification = 73000
Intensity = 0.504904
ExposureDose = 0
PixelSpacing = 1.98592
SpotSize = 7
Defocus = -1.71892
ImageShift = -0.0962234 -0.0561956
RotationAngle = 88.2956
ExposureTime = 0.892336
Binning = 1
SubFramePath = E:\map03\map03_24.mrc
CameraIndex = 0
DividedBy2 = 1
MagIndex = 34
MinMaxMean = 0 80 22.4741
TargetDefocus = -5
DateTime = 03-Jun-21  17:11:57

[ZValue = 25]
TiltAngle = 14.9977
StagePosition = 547.847 -320.5
StageZ = -13.0713
Magnification = 73000
Intensity = 0.504904
ExposureDose = 0
PixelSpacing = 1.98592
SpotSize = 7
Defocus = -1.38861
ImageShift = -0.0643353 -0.025776
RotationAngle = 88.2956
ExposureTime = 0.892336
Binning = 1
SubFramePath = E:\map03\map03_25.mrc
CameraIndex = 0
DividedBy2 = 1
MagIndex = 34
MinMaxMean = 0 222 22.7953
TargetDefocus = -5
DateTime = 03-Jun-21  17:12:32

[ZValue = 26]
TiltAngle = 17.9974
StagePosition = 547.85 -320.456
StageZ = -13.0713
Magnification = 73000
Intensity = 0.504904
ExposureDose = 0
PixelSpacing = 1.98592
SpotSize = 7
Defocus = -1.21548
ImageShift = -0.0256832 0.00394804
RotationAngle = 88.2956
ExposureTime = 0.892336
Binning = 1
SubFramePath = E:\map03\map03_26.mrc
CameraIndex = 0
DividedBy2 = 1
MagIndex = 34
MinMaxMean = 0 221 22.544
TargetDefocus = -5
DateTime = 03-Jun-21  17:13:07

[ZValue = 27]
TiltAngle = 20.9972
StagePosition = 547.854 -320.412
StageZ = -13.0713
Magnification = 73000
Intensity = 0.504904
ExposureDose = 0
PixelSpacing = 1.98592
SpotSize = 7
Defocus = -1.07668
ImageShift = 0.0108083 0.0428892
RotationAngle = 88.2956
ExposureTime = 0.892336
Binning = 1
SubFramePath = E:\map03\map03_27.mrc
CameraIndex = 0
DividedBy2 = 1
MagIndex = 34
MinMaxMean = 0 456 22.3489
TargetDefocus = -5
DateTime = 03-Jun-21  17:13:27

[ZValue = 28]
TiltAngle = 23.9954
StagePosition = 547.86 -320.357
StageZ = -13.0713
Magnification = 73000
Intensity = 0.504904
ExposureDose = 0
PixelSpacing = 1.98592
SpotSize = 7
Defocus = -1.1004
ImageShift = 0.0474178 0.0830279
RotationAngle = 88.2956
ExposureTime = 0.892336
Binning = 1
SubFramePath = E:\map03\map03_28.mrc
CameraIndex = 0
DividedBy2 = 1
MagIndex = 34
MinMaxMean = 0 152 22.6796
TargetDefocus = -5
DateTime = 03-Jun-21  17:14:10

[ZValue = 29]
TiltAngle = 26.9952
StagePosition = 547.865 -320.311
StageZ = -13.0713
Magnification = 73000
Intensity = 0.504904
ExposureDose = 0
PixelSpacing = 1.98592
SpotSize = 7
Defocus = -0.993317
ImageShift = 0.101374 0.123865
RotationAngle = 88.2956
ExposureTime = 0.892336
Binning = 1
SubFramePath = E:\map03\map03_29.mrc
CameraIndex = 0
DividedBy2 = 1
MagIndex = 34
MinMaxMean = 0 89 22.5006
TargetDefocus = -5
DateTime = 03-Jun-21  17:14:31

[ZValue = 30]
TiltAngle = 29.9944
StagePosition = 547.871 -320.262
StageZ = -13.0713
Magnification = 73000
Intensity = 0.504904
ExposureDose = 0
PixelSpacing = 1.98592
SpotSize = 7
Defocus = -1.01437
ImageShift = 0.129094 0.157713
RotationAngle = 88.2956
ExposureTime = 0.892336
Binning = 1
SubFramePath = E:\map03\map03_30.mrc
CameraIndex = 0
DividedBy2 = 1
MagIndex = 34
MinMaxMean = 0 80 22.6111
TargetDefocus = -5
DateTime = 03-Jun-21  17:15:05

[ZValue = 31]
TiltAngle = 32.9937
StagePosition = 547.872 -320.213
StageZ = -13.0713
Magnification = 73000
Intensity = 0.504904
ExposureDose = 0
PixelSpacing = 1.98592
SpotSize = 7
Defocus = -0.981697
ImageShift = 0.158189 0.195588
RotationAngle = 88.2956
ExposureTime = 0.892336
Binning = 1
SubFramePath = E:\map03\map03_31.mrc
CameraIndex = 0
DividedBy2 = 1
MagIndex = 34
MinMaxMean = 0 78 22.4334
TargetDefocus = -5
DateTime = 03-Jun-21  17:15:40

[ZValue = 32]
TiltAngle = 35.9944
StagePosition = 547.878 -320.165
StageZ = -13.0713
Magnification = 73000
Intensity = 0.504904
ExposureDose = 0
PixelSpacing = 1.98592
SpotSize = 7
Defocus = -0.872868
ImageShift = 0.189704 0.23693
RotationAngle = 88.2956
ExposureTime = 0.892336
Binning = 1
SubFramePath = E:\map03\map03_32.mrc
CameraIndex = 0
DividedBy2 = 1
MagIndex = 34
MinMaxMean = 0 75 22.3206
TargetDefocus = -5
DateTime = 03-Jun-21  17:16:15

[ZValue = 33]
TiltAngle = 38.9941
StagePosition = 547.884 -320.119
StageZ = -13.0713
Magnification = 73000
Intensity = 0.504904
ExposureDose = 0
PixelSpacing = 1.98592
SpotSize = 7
Defocus = -0.845972
ImageShift = 0.21875 0.274946
RotationAngle = 88.2956
ExposureTime = 0.892336
Binning = 1
SubFramePath = E:\map03\map03_33.mrc
CameraIndex = 0
DividedBy2 = 1
MagIndex = 34
MinMaxMean = 0 141 22.308
TargetDefocus = -5
DateTime = 03-Jun-21  17:16:35

[ZValue = 34]
TiltAngle = 41.9953
StagePosition = 547.886 -320.075
StageZ = -13.0713
Magnification = 73000
Intensity = 0.504904
ExposureDose = 0
PixelSpacing = 1.98592
SpotSize = 7
Defocus = -0.804349
ImageShift = 0.259625 0.307192
RotationAngle = 88.2956
ExposureTime = 0.892336
Binning = 1
SubFramePath = E:\map03\map03_34.mrc
CameraIndex = 0
DividedBy2 = 1
MagIndex = 34
MinMaxMean = 0 197 22.4102
TargetDefocus = -5
DateTime = 03-Jun-21  17:17:10

[ZValue = 35]
TiltAngle = 44.9956
StagePosition = 547.889 -320.027
StageZ = -13.0713
Magnification = 73000
Intensity = 0.504904
ExposureDose = 0
PixelSpacing = 1.98592
SpotSize = 7
Defocus = -0.738131
ImageShift = 0.272482 0.331964
RotationAngle = 88.2956
ExposureTime = 0.892336
Binning = 1
SubFramePath = E:\map03\map03_35.mrc
CameraIndex = 0
DividedBy2 = 1
MagIndex = 34
MinMaxMean = 0 74 22.2182
TargetDefocus = -5
DateTime = 03-Jun-21  17:17:31

[ZValue = 36]
TiltAngle = 47.9958
StagePosition = 547.892 -319.987
StageZ = -13.0713
Magnification = 73000
Intensity = 0.504904
ExposureDose = 0
PixelSpacing = 1.98592
SpotSize = 7
Defocus = -0.771482
ImageShift = 0.295112 0.358471
RotationAngle = 88.2956
ExposureTime = 0.892336
Binning = 1
SubFramePath = E:\map03\map03_36.mrc
CameraIndex = 0
DividedBy2 = 1
MagIndex = 34
MinMaxMean = 0 104 22.2096
TargetDefocus = -5
DateTime = 03-Jun-21  17:18:06

[ZValue = 37]
TiltAngle = 50.9945
StagePosition = 547.892 -319.94
StageZ = -13.0713
Magnification = 73000
Intensity = 0.504904
ExposureDose = 0
PixelSpacing = 1.98592
SpotSize = 7
Defocus = -0.79632
ImageShift = 0.295837 0.377017
RotationAngle = 88.2956
ExposureTime = 0.892336
Binning = 1
SubFramePath = E:\map03\map03_37.mrc
CameraIndex = 0
DividedBy2 = 1
MagIndex = 34
MinMaxMean = 0 107 22.0232
TargetDefocus = -5
DateTime = 03-Jun-21  17:18:40

[ZValue = 38]
TiltAngle = 53.9952
StagePosition = 547.897 -319.901
StageZ = -13.0713
Magnification = 73000
Intensity = 0.504904
ExposureDose = 0
PixelSpacing = 1.98592
SpotSize = 7
Defocus = -0.844178
ImageShift = 0.333769 0.41018
RotationAngle = 88.2956
ExposureTime = 0.892336
Binning = 1
SubFramePath = E:\map03\map03_38.mrc
CameraIndex = 0
DividedBy2 = 1
MagIndex = 34
MinMaxMean = 0 76 22.2059
TargetDefocus = -5
DateTime = 03-Jun-21  17:19:15

[ZValue = 39]
TiltAngle = 56.995
StagePosition = 547.9 -319.864
StageZ = -13.0713
Magnification = 73000
Intensity = 0.504904
ExposureDose = 0
PixelSpacing = 1.98592
SpotSize = 7
Defocus = -0.826678
ImageShift = 0.364381 0.439143
RotationAngle = 88.2956
ExposureTime = 0.892336
Binning = 1
SubFramePath = E:\map03\map03_39.mrc
CameraIndex = 0
DividedBy2 = 1
MagIndex = 34
MinMaxMean = 0 213 22.2481
TargetDefocus = -5
DateTime = 03-Jun-21  17:19:36

[ZValue = 40]
TiltAngle = 59.9957
StagePosition = 547.897 -319.828
StageZ = -13.0713
Magnification = 73000
Intensity = 0.504904
ExposureDose = 0
PixelSpacing = 1.98592
SpotSize = 7
Defocus = -0.773262
ImageShift = 0.40547 0.469139
RotationAngle = 88.2956
ExposureTime = 0.892336
Binning = 1
SubFramePath = E:\map03\map03_40.mrc
CameraIndex = 0
DividedBy2 = 1
MagIndex = 34
MinMaxMean = 0 373 22.1179
TargetDefocus = -5
DateTime = 03-Jun-21  17:20:11
